
X =

     0


X =

     0


X =

  -0.401107424946700


X =

  -0.807533367890911


X =

  -1.222009436038913


X =

  -1.645802661725933


X =

  -2.079441541679836


X =

  -2.523063553165665


X =

  -2.976593707003259


X =

  -3.439841202098771


X =

  -3.912553785288401


X =

  -4.394449154672438


X =

  -0.200151377589082


X =

  -0.603437808275229


X =

  -1.013662770270411


X =

  -1.432696277867860


X =

  -1.861376269899945


X =

  -2.300005768661070


X =

  -2.748600105685843


X =

  -3.207017561559543


X =

  -3.675031560138049


X =

  -4.152371874270470


X =

     0


X =

     0


X =

     0


X =

     0


X =

  -0.401107424946700


X =

  -0.401107424946700


X =

  -0.401107424946700


X =

  -0.807533367890911


X =

  -0.807533367890911


X =

  -0.807533367890911


X =

  -1.222009436038913


X =

  -1.222009436038913


X =

  -1.222009436038913


X =

  -1.645802661725933


X =

  -1.645802661725933


X =

  -2.079441541679836


X =

  -2.079441541679836


X =

  -2.523063553165665


X =

  -2.523063553165665


X =

  -2.976593707003259


X =

  -2.976593707003259


X =

  -3.439841202098771


X =

  -3.439841202098771


X =

  -3.912553785288401


X =

  -3.912553785288401


X =

  -4.394449154672438


X =

  -4.394449154672438


X =

     0


X =

  -0.401107424946700


X =

  -0.807533367890911


X =

  -1.222009436038913


X =

  -1.645802661725933


X =

  -2.079441541679836


X =

  -2.523063553165665


X =

  -2.976593707003259


X =

  -3.439841202098771


X =

  -3.912553785288401


X =

  -4.394449154672438


X =

  -0.200151377589082


X =

  -0.603437808275229


X =

  -1.013662770270411


X =

  -1.432696277867860


X =

  -1.861376269899945


X =

  -2.300005768661070


X =

  -2.748600105685843


X =

  -3.207017561559543


X =

  -3.675031560138049


X =

  -4.152371874270470


X =

     0


X =

  -0.401107424946700


X =

  -0.807533367890911


X =

  -1.222009436038913


X =

  -1.645802661725933


X =

  -2.079441541679836


X =

  -2.523063553165665


X =

  -2.976593707003259


X =

  -3.439841202098771


X =

  -3.912553785288401


X =

  -4.394449154672438


X =

  -0.200151377589082


X =

  -0.603437808275229


X =

  -1.013662770270411


X =

  -1.432696277867860


X =

  -1.861376269899945


X =

  -2.300005768661070


X =

  -2.748600105685843


X =

  -3.207017561559543


X =

  -3.675031560138049


X =

  -4.152371874270470


X =

     0


X =

  -0.401107424946700


X =

  -0.807533367890911


X =

  -1.222009436038913


X =

  -1.645802661725933


X =

  -2.079441541679836


X =

  -2.523063553165665


X =

  -2.976593707003259


X =

  -3.439841202098771


X =

  -3.912553785288401


X =

  -4.394449154672438


X =

  -0.200151377589082


X =

  -0.603437808275229


X =

  -1.013662770270411


X =

  -1.432696277867860


X =

  -1.861376269899945


X =

  -2.300005768661070


X =

  -2.748600105685843


X =

  -3.207017561559543


X =

  -3.675031560138049


X =

  -4.152371874270470


X =

  -0.069075900510995


X =

  -0.470803226813837


X =

  -0.878478691792177


X =

  -1.294500025560079


X =

  -1.719969660306379


X =

  -2.155330147371738


X =

  -2.600672547179795


X =

  -3.055896500077357


X =

  -3.520797528751821


X =

  -3.995116404090250


X =

  -0.331577061715120


X =

  -0.736831341295682


X =

  -1.149798321056461


X =

  -1.571930115263008


X =

  -2.003851081383934


X =

  -2.445750247136655


X =

  -2.897580787630030


X =

  -3.359167155232853


X =

  -3.830264986322924


X =

  -4.310595575198270


X =

     0


X =

  -0.133379610350980


X =

  -0.267014704968546


X =

  -0.401107424946700


X =

  -0.535814563612256


X =

  -0.671258169054156


X =

  -0.807533367890911


X =

  -0.944714222231728


X =

  -1.082858170894913


X =

  -1.222009436038913


X =

  -1.362201663375975


X =

  -1.503459987579344


X =

  -1.645802661725933


X =

  -1.789242352675916


X =

  -1.933787178060508


X =

  -2.079441541679836


X =

  -2.226206810374337


X =

  -2.374081865318885


X =

  -2.523063553165665


X =

  -2.673147056812241


X =

  -2.824326201290678


X =

  -2.976593707003259


X =

  -3.129941400012317


X =

  -3.284360387138754


X =

  -3.439841202098771


X =

  -3.596373927709664


X =

  -3.753948298247832


X =

  -3.912553785288401


X =

  -4.072179669753229


X =

  -4.232815102409801


X =

  -4.394449154672438


X =

  -0.066672639740081


X =

  -0.200151377589082


X =

  -0.333993139625726


X =

  -0.468375852526621


X =

  -0.603437808275229


X =

  -0.739286754599761


X =

  -0.876006652809757


X =

  -1.013662770270411


X =

  -1.152305564789618


X =

  -1.291973679980974


X =

  -1.432696277867860


X =

  -1.574494871562240


X =

  -1.717384776782561


X =

  -1.861376269899945


X =

  -2.006475517989240


X =

  -2.152685330283839


X =

  -2.300005768661070


X =

  -2.448434646072692


X =

  -2.597967935323155


X =

  -2.748600105685843


X =

  -2.900324401109839


X =

  -3.053133070902742


X =

  -3.207017561559543


X =

  -3.361968676683118


X =

  -3.517976710591013


X =

  -3.675031560138049


X =

  -3.833122818439733


X =

  -3.992239853507952


X =

  -4.152371874270470


X =

  -4.313507986010939


X =

     0


X =

     0


X =

     0


X =

     0


X =

  -0.133379610350980


X =

  -0.133379610350980


X =

  -0.267014704968546


X =

  -0.267014704968546


X =

  -0.401107424946700


X =

  -0.401107424946700


X =

  -0.535814563612256


X =

  -0.535814563612256


X =

  -0.671258169054156


X =

  -0.671258169054156


X =

  -0.807533367890911


X =

  -0.807533367890911


X =

  -0.944714222231728


X =

  -0.944714222231728


X =

  -1.082858170894913


X =

  -1.082858170894913


X =

  -1.222009436038913


X =

  -1.222009436038913


X =

  -1.362201663375975


X =

  -1.362201663375975


X =

  -1.503459987579344


X =

  -1.503459987579344


X =

  -1.645802661725933


X =

  -1.645802661725933


X =

  -1.789242352675916


X =

  -1.789242352675916


X =

  -1.933787178060508


X =

  -1.933787178060508


X =

  -2.079441541679836


X =

  -2.079441541679836


X =

  -2.226206810374337


X =

  -2.226206810374337


X =

  -2.374081865318885


X =

  -2.374081865318885


X =

  -2.523063553165665


X =

  -2.523063553165665


X =

  -2.673147056812241


X =

  -2.673147056812241


X =

  -2.824326201290678


X =

  -2.824326201290678


X =

  -2.976593707003259


X =

  -2.976593707003259


X =

  -3.129941400012317


X =

  -3.129941400012317


X =

  -3.284360387138754


X =

  -3.284360387138754


X =

  -3.439841202098771


X =

  -3.439841202098771


X =

  -3.596373927709664


X =

  -3.596373927709664


X =

  -3.753948298247832


X =

  -3.753948298247832


X =

  -3.912553785288401


X =

  -3.912553785288401


X =

  -4.072179669753229


X =

  -4.072179669753229


X =

  -4.232815102409801


X =

  -4.232815102409801


X =

  -4.394449154672438


X =

  -4.394449154672438


X =

     0


X =

  -0.133379610350980


X =

  -0.267014704968546


X =

  -0.401107424946700


X =

  -0.535814563612256


X =

  -0.671258169054156


X =

  -0.807533367890911


X =

  -0.944714222231728


X =

  -1.082858170894913


X =

  -1.222009436038913


X =

  -1.362201663375975


X =

  -1.503459987579344


X =

  -1.645802661725933


X =

  -1.789242352675916


X =

  -1.933787178060508


X =

  -2.079441541679836


X =

  -2.226206810374337


X =

  -2.374081865318885


X =

  -2.523063553165665


X =

  -2.673147056812241


X =

  -2.824326201290678


X =

  -2.976593707003259


X =

  -3.129941400012317


X =

  -3.284360387138754


X =

  -3.439841202098771


X =

  -3.596373927709664


X =

  -3.753948298247832


X =

  -3.912553785288401


X =

  -4.072179669753229


X =

  -4.232815102409801


X =

  -4.394449154672438


X =

  -0.066672639740081


X =

  -0.200151377589082


X =

  -0.333993139625726


X =

  -0.468375852526621


X =

  -0.603437808275229


X =

  -0.739286754599761


X =

  -0.876006652809757


X =

  -1.013662770270411


X =

  -1.152305564789618


X =

  -1.291973679980974


X =

  -1.432696277867860


X =

  -1.574494871562240


X =

  -1.717384776782561


X =

  -1.861376269899945


X =

  -2.006475517989240


X =

  -2.152685330283839


X =

  -2.300005768661070


X =

  -2.448434646072692


X =

  -2.597967935323155


X =

  -2.748600105685843


X =

  -2.900324401109839


X =

  -3.053133070902742


X =

  -3.207017561559543


X =

  -3.361968676683118


X =

  -3.517976710591013


X =

  -3.675031560138049


X =

  -3.833122818439733


X =

  -3.992239853507952


X =

  -4.152371874270470


X =

  -4.313507986010939


X =

     0


X =

  -0.133379610350980


X =

  -0.267014704968546


X =

  -0.401107424946700


X =

  -0.535814563612256


X =

  -0.671258169054156


X =

  -0.807533367890911


X =

  -0.944714222231728


X =

  -1.082858170894913


X =

  -1.222009436038913


X =

  -1.362201663375975


X =

  -1.503459987579344


X =

  -1.645802661725933


X =

  -1.789242352675916


X =

  -1.933787178060508


X =

  -2.079441541679836


X =

  -2.226206810374337


X =

  -2.374081865318885


X =

  -2.523063553165665


X =

  -2.673147056812241


X =

  -2.824326201290678


X =

  -2.976593707003259


X =

  -3.129941400012317


X =

  -3.284360387138754


X =

  -3.439841202098771


X =

  -3.596373927709664


X =

  -3.753948298247832


X =

  -3.912553785288401


X =

  -4.072179669753229


X =

  -4.232815102409801


X =

  -4.394449154672438


X =

  -0.066672639740081


X =

  -0.200151377589082


X =

  -0.333993139625726


X =

  -0.468375852526621


X =

  -0.603437808275229


X =

  -0.739286754599761


X =

  -0.876006652809757


X =

  -1.013662770270411


X =

  -1.152305564789618


X =

  -1.291973679980974


X =

  -1.432696277867860


X =

  -1.574494871562240


X =

  -1.717384776782561


X =

  -1.861376269899945


X =

  -2.006475517989240


X =

  -2.152685330283839


X =

  -2.300005768661070


X =

  -2.448434646072692


X =

  -2.597967935323155


X =

  -2.748600105685843


X =

  -2.900324401109839


X =

  -3.053133070902742


X =

  -3.207017561559543


X =

  -3.361968676683118


X =

  -3.517976710591013


X =

  -3.675031560138049


X =

  -3.833122818439733


X =

  -3.992239853507952


X =

  -4.152371874270470


X =

  -4.313507986010939


X =

  -0.023023339966051


X =

  -0.156430241151172


X =

  -0.290131343024284


X =

  -0.424320044449617


X =

  -0.559146472257403


X =

  -0.694727530603324


X =

  -0.831154335904588


X =

  -0.968497795647565


X =

  -1.106812847475681


X =

  -1.246141716842180


X =

  -1.386516446006837


X =

  -1.527960875445585


X =

  -1.670492209177537


X =

  -1.814122260728179


X =

  -1.958858451689863


X =

  -2.104704616992338


X =

  -2.251661657975250


X =

  -2.399728074751085


X =

  -2.548900402191527


X =

  -2.699173568488386


X =

  -2.850541191156328


X =

  -3.002995822220471


X =

  -3.156529151923114


X =

  -3.311132178413533


X =

  -3.466795349422418


X =

  -3.623508680772102


X =

  -3.781261855663019


X =

  -3.940044307951981


X =

  -4.099845292057780


X =

  -4.260653941663010


X =

  -0.110336739768441


X =

  -0.243911819551143


X =

  -0.377913207854740


X =

  -0.512504677758460


X =

  -0.647813652646316


X =

  -0.783939442668889


X =

  -0.920959396076384


X =

  -1.058933553798970


X =

  -1.197908212966426


X =

  -1.337918683995925


X =

  -1.478991444099203


X =

  -1.621145833853927


X =

  -1.764395404238478


X =

  -1.908748993728503


X =

  -2.054211595097505


X =

  -2.200785057063403


X =

  -2.348468655267501


X =

  -2.497259559160276


X =

  -2.647153215436214


X =

  -2.798143664172034


X =

  -2.950223800398631


X =

  -3.103385591204197


X =

  -3.257620256426435


X =

  -3.412918419400959


X =

  -3.569270232983960


X =

  -3.726665485080668


X =

  -3.885093687127328


X =

  -4.044544148348256


X =

  -4.205006038106845


X =

  -4.366468438263660


X =

     0


X =

  -0.066672639740081


X =

  -0.133379610350980


X =

  -0.200151377589082


X =

  -0.267014704968546


X =

  -0.333993139625726


X =

  -0.401107424946700


X =

  -0.468375852526621


X =

  -0.535814563612256


X =

  -0.603437808275229


X =

  -0.671258169054156


X =

  -0.739286754599761


X =

  -0.807533367890911


X =

  -0.876006652809757


X =

  -0.944714222231728


X =

  -1.013662770270411


X =

  -1.082858170894913


X =

  -1.152305564789618


X =

  -1.222009436038913


X =

  -1.291973679980974


X =

  -1.362201663375975


X =

  -1.432696277867860


X =

  -1.503459987579344


X =

  -1.574494871562240


X =

  -1.645802661725933


X =

  -1.717384776782561


X =

  -1.789242352675916


X =

  -1.861376269899945


X =

  -1.933787178060508


X =

  -2.006475517989240


X =

  -2.079441541679836


X =

  -2.152685330283839


X =

  -2.226206810374337


X =

  -2.300005768661070


X =

  -2.374081865318885


X =

  -2.448434646072692


X =

  -2.523063553165665


X =

  -2.597967935323155


X =

  -2.673147056812241


X =

  -2.748600105685843


X =

  -2.824326201290678


X =

  -2.900324401109839


X =

  -2.976593707003259


X =

  -3.053133070902742


X =

  -3.129941400012317


X =

  -3.207017561559543


X =

  -3.284360387138754


X =

  -3.361968676683118


X =

  -3.439841202098771


X =

  -3.517976710591013


X =

  -3.596373927709664


X =

  -3.675031560138049


X =

  -3.753948298247832


X =

  -3.833122818439733


X =

  -3.912553785288401


X =

  -3.992239853507952


X =

  -4.072179669753229


X =

  -4.152371874270470


X =

  -4.232815102409801


X =

  -4.313507986010939


X =

  -4.394449154672438


X =

  -0.033334092268275


X =

  -0.100019836547336


X =

  -0.166755640986534


X =

  -0.233570054340765


X =

  -0.300488176106591


X =

  -0.367532104021952


X =

  -0.434721314953277


X =

  -0.502072990456972


X =

  -0.569602296158781


X =

  -0.637322622400733


X =

  -0.705245792258295


X =

  -0.773382241952552


X =

  -0.841741177814855


X =

  -0.910330713259583


X =

  -0.979157988649931


X =

  -1.048229276475119


X =

  -1.117550073874446


X =

  -1.187125184227637


X =

  -1.256958789269355


X =

  -1.327054512968096


X =

  -1.397415478228076


X =

  -1.468044357320470


X =

  -1.538943416822412


X =

  -1.610114557734126


X =

  -1.681559351353171


X =

  -1.753279071407166


X =

  -1.825274722880192


X =

  -1.897547067911686


X =

  -1.970096649098184


X =

  -2.042923810486796


X =

  -2.116028716513498


X =

  -2.189411369108466


X =

  -2.263071623163952


X =

  -2.337009200537062


X =

  -2.411223702739650


X =

  -2.485714622449978


X =

  -2.560481353965551


X =

  -2.635523202703068


X =

  -2.710839393839779


X =

  -2.786429080180160


X =

  -2.862291349322827


X =

  -2.938425230194579


X =

  -3.014829699011451


X =

  -3.091503684720393


X =

  -3.168446073969699


X =

  -3.245655715651430


X =

  -3.323131425054688


X =

  -3.400871987664773


X =

  -3.478876162639783


X =

  -3.557142685993179


X =

  -3.635670273508035


X =

  -3.714457623406326


X =

  -3.793503418794300


X =

  -3.872806329903109


X =

  -3.952365016142045


X =

  -4.032178127980154


X =

  -4.112244308670551


X =

  -4.192562195830537


X =

  -4.273130422889328


X =

  -4.353947620414306


X =

     0


X =

     0


X =

     0


X =

     0


X =

  -0.066672639740081


X =

  -0.066672639740081


X =

  -0.133379610350980


X =

  -0.133379610350980


X =

  -0.200151377589082


X =

  -0.200151377589082


X =

  -0.267014704968546


X =

  -0.267014704968546


X =

  -0.333993139625726


X =

  -0.333993139625726


X =

  -0.401107424946700


X =

  -0.401107424946700


X =

  -0.468375852526621


X =

  -0.468375852526621


X =

  -0.535814563612256


X =

  -0.535814563612256


X =

  -0.603437808275229


X =

  -0.603437808275229


X =

  -0.671258169054156


X =

  -0.671258169054156


X =

  -0.739286754599761


X =

  -0.739286754599761


X =

  -0.807533367890911


X =

  -0.807533367890911


X =

  -0.876006652809757


X =

  -0.876006652809757


X =

  -0.944714222231728


X =

  -0.944714222231728


X =

  -1.013662770270411


X =

  -1.013662770270411


X =

  -1.082858170894913


X =

  -1.082858170894913


X =

  -1.152305564789618


X =

  -1.152305564789618


X =

  -1.222009436038913


X =

  -1.222009436038913


X =

  -1.291973679980974


X =

  -1.291973679980974


X =

  -1.362201663375975


X =

  -1.362201663375975


X =

  -1.432696277867860


X =

  -1.432696277867860


X =

  -1.503459987579344


X =

  -1.503459987579344


X =

  -1.574494871562240


X =

  -1.574494871562240


X =

  -1.645802661725933


X =

  -1.645802661725933


X =

  -1.717384776782561


X =

  -1.717384776782561


X =

  -1.789242352675916


X =

  -1.789242352675916


X =

  -1.861376269899945


X =

  -1.861376269899945


X =

  -1.933787178060508


X =

  -1.933787178060508


X =

  -2.006475517989240


X =

  -2.006475517989240


X =

  -2.079441541679836


X =

  -2.079441541679836


X =

  -2.152685330283839


X =

  -2.152685330283839


X =

  -2.226206810374337


X =

  -2.226206810374337


X =

  -2.300005768661070


X =

  -2.300005768661070


X =

  -2.374081865318885


X =

  -2.374081865318885


X =

  -2.448434646072692


X =

  -2.448434646072692


X =

  -2.523063553165665


X =

  -2.523063553165665


X =

  -2.597967935323155


X =

  -2.597967935323155


X =

  -2.673147056812241


X =

  -2.673147056812241


X =

  -2.748600105685843


X =

  -2.748600105685843


X =

  -2.824326201290678


X =

  -2.824326201290678


X =

  -2.900324401109839


X =

  -2.900324401109839


X =

  -2.976593707003259


X =

  -2.976593707003259


X =

  -3.053133070902742


X =

  -3.053133070902742


X =

  -3.129941400012317


X =

  -3.129941400012317


X =

  -3.207017561559543


X =

  -3.207017561559543


X =

  -3.284360387138754


X =

  -3.284360387138754


X =

  -3.361968676683118


X =

  -3.361968676683118


X =

  -3.439841202098771


X =

  -3.439841202098771


X =

  -3.517976710591013


X =

  -3.517976710591013


X =

  -3.596373927709664


X =

  -3.596373927709664


X =

  -3.675031560138049


X =

  -3.675031560138049


X =

  -3.753948298247832


X =

  -3.753948298247832


X =

  -3.833122818439733


X =

  -3.833122818439733


X =

  -3.912553785288401


X =

  -3.912553785288401


X =

  -3.992239853507952


X =

  -3.992239853507952


X =

  -4.072179669753229


X =

  -4.072179669753229


X =

  -4.152371874270470


X =

  -4.152371874270470


X =

  -4.232815102409801


X =

  -4.232815102409801


X =

  -4.313507986010939


X =

  -4.313507986010939


X =

  -4.394449154672438


X =

  -4.394449154672438


X =

     0


X =

  -0.066672639740081


X =

  -0.133379610350980


X =

  -0.200151377589082


X =

  -0.267014704968546


X =

  -0.333993139625726


X =

  -0.401107424946700


X =

  -0.468375852526621


X =

  -0.535814563612256


X =

  -0.603437808275229


X =

  -0.671258169054156


X =

  -0.739286754599761


X =

  -0.807533367890911


X =

  -0.876006652809757


X =

  -0.944714222231728


X =

  -1.013662770270411


X =

  -1.082858170894913


X =

  -1.152305564789618


X =

  -1.222009436038913


X =

  -1.291973679980974


X =

  -1.362201663375975


X =

  -1.432696277867860


X =

  -1.503459987579344


X =

  -1.574494871562240


X =

  -1.645802661725933


X =

  -1.717384776782561


X =

  -1.789242352675916


X =

  -1.861376269899945


X =

  -1.933787178060508


X =

  -2.006475517989240


X =

  -2.079441541679836


X =

  -2.152685330283839


X =

  -2.226206810374337


X =

  -2.300005768661070


X =

  -2.374081865318885


X =

  -2.448434646072692


X =

  -2.523063553165665


X =

  -2.597967935323155


X =

  -2.673147056812241


X =

  -2.748600105685843


X =

  -2.824326201290678


X =

  -2.900324401109839


X =

  -2.976593707003259


X =

  -3.053133070902742


X =

  -3.129941400012317


X =

  -3.207017561559543


X =

  -3.284360387138754


X =

  -3.361968676683118


X =

  -3.439841202098771


X =

  -3.517976710591013


X =

  -3.596373927709664


X =

  -3.675031560138049


X =

  -3.753948298247832


X =

  -3.833122818439733


X =

  -3.912553785288401


X =

  -3.992239853507952


X =

  -4.072179669753229


X =

  -4.152371874270470


X =

  -4.232815102409801


X =

  -4.313507986010939


X =

  -4.394449154672438


X =

  -0.033334092268275


X =

  -0.100019836547336


X =

  -0.166755640986534


X =

  -0.233570054340765


X =

  -0.300488176106591


X =

  -0.367532104021952


X =

  -0.434721314953277


X =

  -0.502072990456972


X =

  -0.569602296158781


X =

  -0.637322622400733


X =

  -0.705245792258295


X =

  -0.773382241952552


X =

  -0.841741177814855


X =

  -0.910330713259583


X =

  -0.979157988649931


X =

  -1.048229276475119


X =

  -1.117550073874446


X =

  -1.187125184227637


X =

  -1.256958789269355


X =

  -1.327054512968096


X =

  -1.397415478228076


X =

  -1.468044357320470


X =

  -1.538943416822412


X =

  -1.610114557734126


X =

  -1.681559351353171


X =

  -1.753279071407166


X =

  -1.825274722880192


X =

  -1.897547067911686


X =

  -1.970096649098184


X =

  -2.042923810486796


X =

  -2.116028716513498


X =

  -2.189411369108466


X =

  -2.263071623163952


X =

  -2.337009200537062


X =

  -2.411223702739650


X =

  -2.485714622449978


X =

  -2.560481353965551


X =

  -2.635523202703068


X =

  -2.710839393839779


X =

  -2.786429080180160


X =

  -2.862291349322827


X =

  -2.938425230194579


X =

  -3.014829699011451


X =

  -3.091503684720393


X =

  -3.168446073969699


X =

  -3.245655715651430


X =

  -3.323131425054688


X =

  -3.400871987664773


X =

  -3.478876162639783


X =

  -3.557142685993179


X =

  -3.635670273508035


X =

  -3.714457623406326


X =

  -3.793503418794300


X =

  -3.872806329903109


X =

  -3.952365016142045


X =

  -4.032178127980154


X =

  -4.112244308670551


X =

  -4.192562195830537


X =

  -4.273130422889328


X =

  -4.353947620414306


X =

  -0.011511575908168


X =

  -0.078187789516053


X =

  -0.144903882802120


X =

  -0.211689643898342


X =

  -0.278571248457553


X =

  -0.345571731849556


X =

  -0.412711390490197


X =

  -0.480008124411670


X =

  -0.547477730863795


X =

  -0.615134156907777


X =

  -0.682989717513057


X =

  -0.751055284509140


X =

  -0.819340450813579


X =

  -0.887853673605569


X =

  -0.956602399504205


X =

  -1.025593174312433


X =

  -1.094831739479341


X =

  -1.164323117097146


X =

  -1.234071684971064


X =

  -1.304081243069209


X =

  -1.374355072467042


X =

  -1.444895987739681


X =

  -1.515706383619958


X =

  -1.586788276625989


X =

  -1.658143342265511


X =

  -1.729772948342375


X =

  -1.801678184820936


X =

  -1.873859890644609


X =

  -1.946318677854036


X =

  -2.019054953306624


X =

  -2.092068938261669


X =

  -2.165360686062924


X =

  -2.238930098122418


X =

  -2.312776938385130


X =

  -2.386900846432976


X =

  -2.461301349368306


X =

  -2.535977872601024


X =

  -2.610929749649542


X =

  -2.686156231053449


X =

  -2.761656492485101


X =

  -2.837429642137850


X =

  -2.913474727460332


X =

  -2.989790741298875


X =

  -3.066376627503634


X =

  -3.143231286048286


X =

  -3.220353577708073


X =

  -3.297742328336415


X =

  -3.375396332776347


X =

  -3.453314358439419


X =

  -3.531495148581543


X =

  -3.609937425302393


X =

  -3.688639892292450


X =

  -3.767601237349462


X =

  -3.846820134684112


X =

  -3.926295247032773


X =

  -4.006025227593649


X =

  -4.086008721801099


X =

  -4.166244368951577


X =

  -4.246730803693450


X =

  -4.327466657391894


X =

  -0.055158523849820


X =

  -0.121857278773902


X =

  -0.188615848969138


X =

  -0.255461600260088


X =

  -0.322418603822480


X =

  -0.389508060482345


X =

  -0.456748662365854


X =

  -0.524156902428089


X =

  -0.591747340405950


X =

  -0.659532832169996


X =

  -0.727524728198625


X =

  -0.795733045894730


X =

  -0.864166619656219


X =

  -0.932833231956229


X =

  -1.001739728154878


X =

  -1.070892117327305


X =

  -1.140295661033263


X =

  -1.209954951656692


X =

  -1.279873981697458


X =

  -1.350056205192443


X =

  -1.420504592271778


X =

  -1.491221677712263


X =

  -1.562209604228995


X =

  -1.633470161143988


X =

  -1.705004818983963


X =

  -1.776814760485829


X =

  -1.848900908425656


X =

  -1.921263950633217


X =

  -1.993904362508229


X =

  -2.066822427314845


X =

  -2.140018254496879


X =

  -2.213491796226829


X =

  -2.287242862376255


X =

  -2.361271134072960


X =

  -2.435576175991169


X =

  -2.510157447504165


X =

  -2.585014312814149


X =

  -2.660146050161308


X =

  -2.735551860202809


X =

  -2.811230873642601


X =

  -2.887182158184161


X =

  -2.963404724870714


X =

  -3.039897533870652


X =

  -3.116659499759922


X =

  -3.193689496347815


X =

  -3.270986361087926


X =

  -3.348548899111839


X =

  -3.426375886919385


X =

  -3.504466075755998


X =

  -3.582818194704735


X =

  -3.661430953517906


X =

  -3.740303045210828


X =

  -3.819433148438178


X =

  -3.898819929671442


X =

  -3.978462045194321


X =

  -4.058358142931336


X =

  -4.138506864123577


X =

  -4.218906844864208


X =

  -4.299556717505323


X =

  -4.380455111946567


X =

     0


X =

  -0.066672639740081


X =

  -0.133379610350980


X =

  -0.200151377589082


X =

  -0.267014704968546


X =

  -0.333993139625726


X =

  -0.401107424946700


X =

  -0.468375852526621


X =

  -0.535814563612256


X =

  -0.603437808275229


X =

  -0.671258169054156


X =

  -0.739286754599761


X =

  -0.807533367890911


X =

  -0.876006652809757


X =

  -0.944714222231728


X =

  -1.013662770270411


X =

  -1.082858170894913


X =

  -1.152305564789618


X =

  -1.222009436038913


X =

  -1.291973679980974


X =

  -1.362201663375975


X =

  -1.432696277867860


X =

  -1.503459987579344


X =

  -1.538943416822412


X =

  -1.574494871562240


X =

  -1.610114557734126


X =

  -1.645802661725933


X =

  -1.681559351353171


X =

  -1.717384776782561


X =

  -1.753279071407166


X =

  -1.789242352675916


X =

  -1.825274722880192


X =

  -1.861376269899945


X =

  -1.897547067911686


X =

  -1.933787178060508


X =

  -1.970096649098184


X =

  -2.006475517989240


X =

  -2.042923810486796


X =

  -2.079441541679836


X =

  -2.116028716513498


X =

  -2.152685330283839


X =

  -2.189411369108466


X =

  -2.226206810374337


X =

  -2.263071623163952


X =

  -2.300005768661070


X =

  -2.337009200537062


X =

  -2.374081865318885


X =

  -2.448434646072692


X =

  -2.523063553165665


X =

  -2.597967935323155


X =

  -2.673147056812241


X =

  -2.748600105685843


X =

  -2.824326201290678


X =

  -2.900324401109839


X =

  -2.976593707003259


X =

  -3.053133070902742


X =

  -3.129941400012317


X =

  -3.207017561559543


X =

  -3.284360387138754


X =

  -3.361968676683118


X =

  -3.439841202098771


X =

  -3.517976710591013


X =

  -3.596373927709664


X =

  -3.675031560138049


X =

  -3.753948298247832


X =

  -3.833122818439733


X =

  -3.912553785288401


X =

  -3.992239853507952


X =

  -4.072179669753229


X =

  -4.152371874270470


X =

  -4.232815102409801


X =

  -4.313507986010939


X =

  -4.394449154672438


X =

  -0.033334092268275


X =

  -0.100019836547336


X =

  -0.166755640986534


X =

  -0.233570054340765


X =

  -0.300488176106591


X =

  -0.367532104021952


X =

  -0.434721314953277


X =

  -0.502072990456972


X =

  -0.569602296158781


X =

  -0.637322622400733


X =

  -0.705245792258295


X =

  -0.773382241952552


X =

  -0.841741177814855


X =

  -0.910330713259583


X =

  -0.979157988649931


X =

  -1.048229276475119


X =

  -1.117550073874446


X =

  -1.187125184227637


X =

  -1.256958789269355


X =

  -1.327054512968096


X =

  -1.397415478228076


X =

  -1.468044357320470


X =

  -1.521193212676081


X =

  -1.556710627664340


X =

  -1.592296173623477


X =

  -1.627950046589847


X =

  -1.663672423546545


X =

  -1.699463463372335


X =

  -1.735323307740634


X =

  -1.771252081971492


X =

  -1.807249895839325


X =

  -1.843316844338973


X =

  -1.879453008412463


X =

  -1.915658455638761


X =

  -1.951933240888584


X =

  -1.988277406946251


X =

  -2.024690985100429


X =

  -2.061173995705482


X =

  -2.097726448715065


X =

  -2.134348344189470


X =

  -2.171039672778154


X =

  -2.207800416178806


X =

  -2.244630547574185


X =

  -2.281530032047940


X =

  -2.318498826980516


X =

  -2.355536882426188


X =

  -2.411223702739650


X =

  -2.485714622449978


X =

  -2.560481353965551


X =

  -2.635523202703068


X =

  -2.710839393839779


X =

  -2.786429080180160


X =

  -2.862291349322827


X =

  -2.938425230194579


X =

  -3.014829699011451


X =

  -3.091503684720393


X =

  -3.168446073969699


X =

  -3.245655715651430


X =

  -3.323131425054688


X =

  -3.400871987664773


X =

  -3.478876162639783


X =

  -3.557142685993179


X =

  -3.635670273508035


X =

  -3.714457623406326


X =

  -3.793503418794300


X =

  -3.872806329903109


X =

  -3.952365016142045


X =

  -4.032178127980154


X =

  -4.112244308670551


X =

  -4.192562195830537


X =

  -4.273130422889328


X =

  -4.353947620414306


X =

     0


X =

     0


X =

     0


X =

     0


X =

  -0.066672639740081


X =

  -0.066672639740081


X =

  -0.133379610350980


X =

  -0.133379610350980


X =

  -0.200151377589082


X =

  -0.200151377589082


X =

  -0.267014704968546


X =

  -0.267014704968546


X =

  -0.333993139625726


X =

  -0.333993139625726


X =

  -0.401107424946700


X =

  -0.401107424946700


X =

  -0.468375852526621


X =

  -0.468375852526621


X =

  -0.535814563612256


X =

  -0.535814563612256


X =

  -0.603437808275229


X =

  -0.603437808275229


X =

  -0.671258169054156


X =

  -0.671258169054156


X =

  -0.739286754599761


X =

  -0.739286754599761


X =

  -0.807533367890911


X =

  -0.807533367890911


X =

  -0.876006652809757


X =

  -0.876006652809757


X =

  -0.944714222231728


X =

  -0.944714222231728


X =

  -1.013662770270411


X =

  -1.013662770270411


X =

  -1.082858170894913


X =

  -1.082858170894913


X =

  -1.152305564789618


X =

  -1.152305564789618


X =

  -1.222009436038913


X =

  -1.222009436038913


X =

  -1.291973679980974


X =

  -1.291973679980974


X =

  -1.362201663375975


X =

  -1.362201663375975


X =

  -1.432696277867860


X =

  -1.432696277867860


X =

  -1.503459987579344


X =

  -1.503459987579344


X =

  -1.538943416822412


X =

  -1.538943416822412


X =

  -1.574494871562240


X =

  -1.574494871562240


X =

  -1.610114557734126


X =

  -1.610114557734126


X =

  -1.645802661725933


X =

  -1.645802661725933


X =

  -1.681559351353171


X =

  -1.681559351353171


X =

  -1.717384776782561


X =

  -1.717384776782561


X =

  -1.753279071407166


X =

  -1.753279071407166


X =

  -1.789242352675916


X =

  -1.789242352675916


X =

  -1.825274722880192


X =

  -1.825274722880192


X =

  -1.861376269899945


X =

  -1.861376269899945


X =

  -1.897547067911686


X =

  -1.897547067911686


X =

  -1.933787178060508


X =

  -1.933787178060508


X =

  -1.970096649098184


X =

  -1.970096649098184


X =

  -2.006475517989240


X =

  -2.006475517989240


X =

  -2.042923810486796


X =

  -2.042923810486796


X =

  -2.079441541679836


X =

  -2.079441541679836


X =

  -2.116028716513498


X =

  -2.116028716513498


X =

  -2.152685330283839


X =

  -2.152685330283839


X =

  -2.189411369108466


X =

  -2.189411369108466


X =

  -2.226206810374337


X =

  -2.226206810374337


X =

  -2.263071623163952


X =

  -2.263071623163952


X =

  -2.300005768661070


X =

  -2.300005768661070


X =

  -2.337009200537062


X =

  -2.337009200537062


X =

  -2.374081865318885


X =

  -2.374081865318885


X =

  -2.448434646072692


X =

  -2.448434646072692


X =

  -2.523063553165665


X =

  -2.523063553165665


X =

  -2.597967935323155


X =

  -2.597967935323155


X =

  -2.673147056812241


X =

  -2.673147056812241


X =

  -2.748600105685843


X =

  -2.748600105685843


X =

  -2.824326201290678


X =

  -2.824326201290678


X =

  -2.900324401109839


X =

  -2.900324401109839


X =

  -2.976593707003259


X =

  -2.976593707003259


X =

  -3.053133070902742


X =

  -3.053133070902742


X =

  -3.129941400012317


X =

  -3.129941400012317


X =

  -3.207017561559543


X =

  -3.207017561559543


X =

  -3.284360387138754


X =

  -3.284360387138754


X =

  -3.361968676683118


X =

  -3.361968676683118


X =

  -3.439841202098771


X =

  -3.439841202098771


X =

  -3.517976710591013


X =

  -3.517976710591013


X =

  -3.596373927709664


X =

  -3.596373927709664


X =

  -3.675031560138049


X =

  -3.675031560138049


X =

  -3.753948298247832


X =

  -3.753948298247832


X =

  -3.833122818439733


X =

  -3.833122818439733


X =

  -3.912553785288401


X =

  -3.912553785288401


X =

  -3.992239853507952


X =

  -3.992239853507952


X =

  -4.072179669753229


X =

  -4.072179669753229


X =

  -4.152371874270470


X =

  -4.152371874270470


X =

  -4.232815102409801


X =

  -4.232815102409801


X =

  -4.313507986010939


X =

  -4.313507986010939


X =

  -4.394449154672438


X =

  -4.394449154672438


X =

     0


X =

  -0.066672639740081


X =

  -0.133379610350980


X =

  -0.200151377589082


X =

  -0.267014704968546


X =

  -0.333993139625726


X =

  -0.401107424946700


X =

  -0.468375852526621


X =

  -0.535814563612256


X =

  -0.603437808275229


X =

  -0.671258169054156


X =

  -0.739286754599761


X =

  -0.807533367890911


X =

  -0.876006652809757


X =

  -0.944714222231728


X =

  -1.013662770270411


X =

  -1.082858170894913


X =

  -1.152305564789618


X =

  -1.222009436038913


X =

  -1.291973679980974


X =

  -1.362201663375975


X =

  -1.432696277867860


X =

  -1.503459987579344


X =

  -1.538943416822412


X =

  -1.574494871562240


X =

  -1.610114557734126


X =

  -1.645802661725933


X =

  -1.681559351353171


X =

  -1.717384776782561


X =

  -1.753279071407166


X =

  -1.789242352675916


X =

  -1.825274722880192


X =

  -1.861376269899945


X =

  -1.897547067911686


X =

  -1.933787178060508


X =

  -1.970096649098184


X =

  -2.006475517989240


X =

  -2.042923810486796


X =

  -2.079441541679836


X =

  -2.116028716513498


X =

  -2.152685330283839


X =

  -2.189411369108466


X =

  -2.226206810374337


X =

  -2.263071623163952


X =

  -2.300005768661070


X =

  -2.337009200537062


X =

  -2.374081865318885


X =

  -2.448434646072692


X =

  -2.523063553165665


X =

  -2.597967935323155


X =

  -2.673147056812241


X =

  -2.748600105685843


X =

  -2.824326201290678


X =

  -2.900324401109839


X =

  -2.976593707003259


X =

  -3.053133070902742


X =

  -3.129941400012317


X =

  -3.207017561559543


X =

  -3.284360387138754


X =

  -3.361968676683118


X =

  -3.439841202098771


X =

  -3.517976710591013


X =

  -3.596373927709664


X =

  -3.675031560138049


X =

  -3.753948298247832


X =

  -3.833122818439733


X =

  -3.912553785288401


X =

  -3.992239853507952


X =

  -4.072179669753229


X =

  -4.152371874270470


X =

  -4.232815102409801


X =

  -4.313507986010939


X =

  -4.394449154672438


X =

  -0.033334092268275


X =

  -0.100019836547336


X =

  -0.166755640986534


X =

  -0.233570054340765


X =

  -0.300488176106591


X =

  -0.367532104021952


X =

  -0.434721314953277


X =

  -0.502072990456972


X =

  -0.569602296158781


X =

  -0.637322622400733


X =

  -0.705245792258295


X =

  -0.773382241952552


X =

  -0.841741177814855


X =

  -0.910330713259583


X =

  -0.979157988649931


X =

  -1.048229276475119


X =

  -1.117550073874446


X =

  -1.187125184227637


X =

  -1.256958789269355


X =

  -1.327054512968096


X =

  -1.397415478228076


X =

  -1.468044357320470


X =

  -1.521193212676081


X =

  -1.556710627664340


X =

  -1.592296173623477


X =

  -1.627950046589847


X =

  -1.663672423546545


X =

  -1.699463463372335


X =

  -1.735323307740634


X =

  -1.771252081971492


X =

  -1.807249895839325


X =

  -1.843316844338973


X =

  -1.879453008412463


X =

  -1.915658455638761


X =

  -1.951933240888584


X =

  -1.988277406946251


X =

  -2.024690985100429


X =

  -2.061173995705482


X =

  -2.097726448715065


X =

  -2.134348344189470


X =

  -2.171039672778154


X =

  -2.207800416178806


X =

  -2.244630547574185


X =

  -2.281530032047940


X =

  -2.318498826980516


X =

  -2.355536882426188


X =

  -2.411223702739650


X =

  -2.485714622449978


X =

  -2.560481353965551


X =

  -2.635523202703068


X =

  -2.710839393839779


X =

  -2.786429080180160


X =

  -2.862291349322827


X =

  -2.938425230194579


X =

  -3.014829699011451


X =

  -3.091503684720393


X =

  -3.168446073969699


X =

  -3.245655715651430


X =

  -3.323131425054688


X =

  -3.400871987664773


X =

  -3.478876162639783


X =

  -3.557142685993179


X =

  -3.635670273508035


X =

  -3.714457623406326


X =

  -3.793503418794300


X =

  -3.872806329903109


X =

  -3.952365016142045


X =

  -4.032178127980154


X =

  -4.112244308670551


X =

  -4.192562195830537


X =

  -4.273130422889328


X =

  -4.353947620414306


X =

  -0.011511575908168


X =

  -0.078187789516053


X =

  -0.144903882802120


X =

  -0.211689643898342


X =

  -0.278571248457553


X =

  -0.345571731849556


X =

  -0.412711390490197


X =

  -0.480008124411670


X =

  -0.547477730863795


X =

  -0.615134156907777


X =

  -0.682989717513057


X =

  -0.751055284509140


X =

  -0.819340450813579


X =

  -0.887853673605569


X =

  -0.956602399504205


X =

  -1.025593174312433


X =

  -1.094831739479341


X =

  -1.164323117097146


X =

  -1.234071684971064


X =

  -1.304081243069209


X =

  -1.374355072467042


X =

  -1.444895987739681


X =

  -1.509582174220086


X =

  -1.545077334049568


X =

  -1.580640556375637


X =

  -1.616272043686285


X =

  -1.651971979094262


X =

  -1.687740527303024


X =

  -1.723577835521731


X =

  -1.759484034332302


X =

  -1.795459238511343


X =

  -1.831503547809564


X =

  -1.867617047691163


X =

  -1.903799810035443


X =

  -1.940051893802844


X =

  -1.976373345667373


X =

  -2.012764200617335


X =

  -2.049224482526119


X =

  -2.085754204694709


X =

  -2.122353370367457


X =

  -2.159021973222581


X =

  -2.195759997838777


X =

  -2.232567420139186


X =

  -2.269444207813982


X =

  -2.306390320722667


X =

  -2.343405711277178


X =

  -2.386900846432976


X =

  -2.461301349368306


X =

  -2.535977872601024


X =

  -2.610929749649542


X =

  -2.686156231053449


X =

  -2.761656492485101


X =

  -2.837429642137850


X =

  -2.913474727460332


X =

  -2.989790741298875


X =

  -3.066376627503634


X =

  -3.143231286048286


X =

  -3.220353577708073


X =

  -3.297742328336415


X =

  -3.375396332776347


X =

  -3.453314358439419


X =

  -3.531495148581543


X =

  -3.609937425302393


X =

  -3.688639892292450


X =

  -3.767601237349462


X =

  -3.846820134684112


X =

  -3.926295247032773


X =

  -4.006025227593649


X =

  -4.086008721801099


X =

  -4.166244368951577


X =

  -4.246730803693450


X =

  -4.327466657391894


X =

  -0.055158523849820


X =

  -0.121857278773902


X =

  -0.188615848969138


X =

  -0.255461600260088


X =

  -0.322418603822480


X =

  -0.389508060482345


X =

  -0.456748662365854


X =

  -0.524156902428089


X =

  -0.591747340405950


X =

  -0.659532832169996


X =

  -0.727524728198625


X =

  -0.795733045894730


X =

  -0.864166619656219


X =

  -0.932833231956229


X =

  -1.001739728154878


X =

  -1.070892117327305


X =

  -1.140295661033263


X =

  -1.209954951656692


X =

  -1.279873981697458


X =

  -1.350056205192443


X =

  -1.420504592271778


X =

  -1.491221677712263


X =

  -1.532811527894535


X =

  -1.568351221185813


X =

  -1.603959111773928


X =

  -1.639635389350933


X =

  -1.675380224871913


X =

  -1.711193771487237


X =

  -1.747076165425839


X =

  -1.783027526832424


X =

  -1.819047960561278


X =

  -1.855137556929216


X =

  -1.891296392429983


X =

  -1.927524530412349


X =

  -1.963822021723919


X =

  -2.000188905322608


X =

  -2.036625208857574


X =

  -2.073130949221316


X =

  -2.109706133074507


X =

  -2.146350757345068


X =

  -2.183064809702868


X =

  -2.219848269011387


X =

  -2.256701105757541


X =

  -2.293623282460872


X =

  -2.330614754063148


X =

  -2.367675468299461


X =

  -2.435576175991169


X =

  -2.510157447504165


X =

  -2.585014312814149


X =

  -2.660146050161308


X =

  -2.735551860202809


X =

  -2.811230873642601


X =

  -2.887182158184161


X =

  -2.963404724870714


X =

  -3.039897533870652


X =

  -3.116659499759922


X =

  -3.193689496347815


X =

  -3.270986361087926


X =

  -3.348548899111839


X =

  -3.426375886919385


X =

  -3.504466075755998


X =

  -3.582818194704735


X =

  -3.661430953517906


X =

  -3.740303045210828


X =

  -3.819433148438178


X =

  -3.898819929671442


X =

  -3.978462045194321


X =

  -4.058358142931336


X =

  -4.138506864123577


X =

  -4.218906844864208


X =

  -4.299556717505323


X =

  -4.380455111946567

-1.00     2.92751 
-0.80     2.86707 
-0.60     2.68807 
-0.40     2.40484 
-0.20     2.04761 
 0.00     1.65978 
 0.20     1.28936 
 0.40     0.97670 
 0.60     0.74438 
 0.80     0.59446 
 1.00     0.51419 

ans = 

  <a href="matlab:helpPopup struct" style="font-weight:bold">struct</a> with fields:

    solver: 'bvp4c'
         x: [173 double]
         y: [273 double]
        yp: [273 double]
     stats: [11 struct]

сдс
 сдс
 
{Error: Invalid text character. Check for unsupported symbol, invisible character, or pasting of non-ASCII characters.
} 
clc
solex

X =

     0


X =

     0


X =

  -0.401107424946700


X =

  -0.807533367890911


X =

  -1.222009436038913


X =

  -1.645802661725933


X =

  -2.079441541679836


X =

  -2.523063553165665


X =

  -2.976593707003259


X =

  -3.439841202098771


X =

  -3.912553785288401


X =

  -4.394449154672438


X =

  -0.200151377589082


X =

  -0.603437808275229


X =

  -1.013662770270411


X =

  -1.432696277867860


X =

  -1.861376269899945


X =

  -2.300005768661070


X =

  -2.748600105685843


X =

  -3.207017561559543


X =

  -3.675031560138049


X =

  -4.152371874270470


X =

     0


X =

     0


X =

     0


X =

     0


X =

  -0.401107424946700


X =

  -0.401107424946700


X =

  -0.401107424946700


X =

  -0.807533367890911


X =

  -0.807533367890911


X =

  -0.807533367890911


X =

  -1.222009436038913


X =

  -1.222009436038913


X =

  -1.222009436038913


X =

  -1.645802661725933


X =

  -1.645802661725933


X =

  -2.079441541679836


X =

  -2.079441541679836


X =

  -2.523063553165665


X =

  -2.523063553165665


X =

  -2.976593707003259


X =

  -2.976593707003259


X =

  -3.439841202098771


X =

  -3.439841202098771


X =

  -3.912553785288401


X =

  -3.912553785288401


X =

  -4.394449154672438


X =

  -4.394449154672438


X =

     0


X =

  -0.401107424946700


X =

  -0.807533367890911


X =

  -1.222009436038913


X =

  -1.645802661725933


X =

  -2.079441541679836


X =

  -2.523063553165665


X =

  -2.976593707003259


X =

  -3.439841202098771


X =

  -3.912553785288401


X =

  -4.394449154672438


X =

  -0.200151377589082


X =

  -0.603437808275229


X =

  -1.013662770270411


X =

  -1.432696277867860


X =

  -1.861376269899945


X =

  -2.300005768661070


X =

  -2.748600105685843


X =

  -3.207017561559543


X =

  -3.675031560138049


X =

  -4.152371874270470


X =

     0


X =

  -0.401107424946700


X =

  -0.807533367890911


X =

  -1.222009436038913


X =

  -1.645802661725933


X =

  -2.079441541679836


X =

  -2.523063553165665


X =

  -2.976593707003259


X =

  -3.439841202098771


X =

  -3.912553785288401


X =

  -4.394449154672438


X =

  -0.200151377589082


X =

  -0.603437808275229


X =

  -1.013662770270411


X =

  -1.432696277867860


X =

  -1.861376269899945


X =

  -2.300005768661070


X =

  -2.748600105685843


X =

  -3.207017561559543


X =

  -3.675031560138049


X =

  -4.152371874270470


X =

     0


X =

  -0.401107424946700


X =

  -0.807533367890911


X =

  -1.222009436038913


X =

  -1.645802661725933


X =

  -2.079441541679836


X =

  -2.523063553165665


X =

  -2.976593707003259


X =

  -3.439841202098771


X =

  -3.912553785288401


X =

  -4.394449154672438


X =

  -0.200151377589082


X =

  -0.603437808275229


X =

  -1.013662770270411


X =

  -1.432696277867860


X =

  -1.861376269899945


X =

  -2.300005768661070


X =

  -2.748600105685843


X =

  -3.207017561559543


X =

  -3.675031560138049


X =

  -4.152371874270470


X =

  -0.069075900510995


X =

  -0.470803226813837


X =

  -0.878478691792177


X =

  -1.294500025560079


X =

  -1.719969660306379


X =

  -2.155330147371738


X =

  -2.600672547179795


X =

  -3.055896500077357


X =

  -3.520797528751821


X =

  -3.995116404090250


X =

  -0.331577061715120


X =

  -0.736831341295682


X =

  -1.149798321056461


X =

  -1.571930115263008


X =

  -2.003851081383934


X =

  -2.445750247136655


X =

  -2.897580787630030


X =

  -3.359167155232853


X =

  -3.830264986322924


X =

  -4.310595575198270


X =

     0


X =

  -0.133379610350980


X =

  -0.267014704968546


X =

  -0.401107424946700


X =

  -0.535814563612256


X =

  -0.671258169054156


X =

  -0.807533367890911


X =

  -0.944714222231728


X =

  -1.082858170894913


X =

  -1.222009436038913


X =

  -1.362201663375975


X =

  -1.503459987579344


X =

  -1.645802661725933


X =

  -1.789242352675916


X =

  -1.933787178060508


X =

  -2.079441541679836


X =

  -2.226206810374337


X =

  -2.374081865318885


X =

  -2.523063553165665


X =

  -2.673147056812241


X =

  -2.824326201290678


X =

  -2.976593707003259


X =

  -3.129941400012317


X =

  -3.284360387138754


X =

  -3.439841202098771


X =

  -3.596373927709664


X =

  -3.753948298247832


X =

  -3.912553785288401


X =

  -4.072179669753229


X =

  -4.232815102409801


X =

  -4.394449154672438


X =

  -0.066672639740081


X =

  -0.200151377589082


X =

  -0.333993139625726


X =

  -0.468375852526621


X =

  -0.603437808275229


X =

  -0.739286754599761


X =

  -0.876006652809757


X =

  -1.013662770270411


X =

  -1.152305564789618


X =

  -1.291973679980974


X =

  -1.432696277867860


X =

  -1.574494871562240


X =

  -1.717384776782561


X =

  -1.861376269899945


X =

  -2.006475517989240


X =

  -2.152685330283839


X =

  -2.300005768661070


X =

  -2.448434646072692


X =

  -2.597967935323155


X =

  -2.748600105685843


X =

  -2.900324401109839


X =

  -3.053133070902742


X =

  -3.207017561559543


X =

  -3.361968676683118


X =

  -3.517976710591013


X =

  -3.675031560138049


X =

  -3.833122818439733


X =

  -3.992239853507952


X =

  -4.152371874270470


X =

  -4.313507986010939


X =

     0


X =

     0


X =

     0


X =

     0


X =

  -0.133379610350980


X =

  -0.133379610350980


X =

  -0.267014704968546


X =

  -0.267014704968546


X =

  -0.401107424946700


X =

  -0.401107424946700


X =

  -0.535814563612256


X =

  -0.535814563612256


X =

  -0.671258169054156


X =

  -0.671258169054156


X =

  -0.807533367890911


X =

  -0.807533367890911


X =

  -0.944714222231728


X =

  -0.944714222231728


X =

  -1.082858170894913


X =

  -1.082858170894913


X =

  -1.222009436038913


X =

  -1.222009436038913


X =

  -1.362201663375975


X =

  -1.362201663375975


X =

  -1.503459987579344


X =

  -1.503459987579344


X =

  -1.645802661725933


X =

  -1.645802661725933


X =

  -1.789242352675916


X =

  -1.789242352675916


X =

  -1.933787178060508


X =

  -1.933787178060508


X =

  -2.079441541679836


X =

  -2.079441541679836


X =

  -2.226206810374337


X =

  -2.226206810374337


X =

  -2.374081865318885


X =

  -2.374081865318885


X =

  -2.523063553165665


X =

  -2.523063553165665


X =

  -2.673147056812241


X =

  -2.673147056812241


X =

  -2.824326201290678


X =

  -2.824326201290678


X =

  -2.976593707003259


X =

  -2.976593707003259


X =

  -3.129941400012317


X =

  -3.129941400012317


X =

  -3.284360387138754


X =

  -3.284360387138754


X =

  -3.439841202098771


X =

  -3.439841202098771


X =

  -3.596373927709664


X =

  -3.596373927709664


X =

  -3.753948298247832


X =

  -3.753948298247832


X =

  -3.912553785288401


X =

  -3.912553785288401


X =

  -4.072179669753229


X =

  -4.072179669753229


X =

  -4.232815102409801


X =

  -4.232815102409801


X =

  -4.394449154672438


X =

  -4.394449154672438


X =

     0


X =

  -0.133379610350980


X =

  -0.267014704968546


X =

  -0.401107424946700


X =

  -0.535814563612256


X =

  -0.671258169054156


X =

  -0.807533367890911


X =

  -0.944714222231728


X =

  -1.082858170894913


X =

  -1.222009436038913


X =

  -1.362201663375975


X =

  -1.503459987579344


X =

  -1.645802661725933


X =

  -1.789242352675916


X =

  -1.933787178060508


X =

  -2.079441541679836


X =

  -2.226206810374337


X =

  -2.374081865318885


X =

  -2.523063553165665


X =

  -2.673147056812241


X =

  -2.824326201290678


X =

  -2.976593707003259


X =

  -3.129941400012317


X =

  -3.284360387138754


X =

  -3.439841202098771


X =

  -3.596373927709664


X =

  -3.753948298247832


X =

  -3.912553785288401


X =

  -4.072179669753229


X =

  -4.232815102409801


X =

  -4.394449154672438


X =

  -0.066672639740081


X =

  -0.200151377589082


X =

  -0.333993139625726


X =

  -0.468375852526621


X =

  -0.603437808275229


X =

  -0.739286754599761


X =

  -0.876006652809757


X =

  -1.013662770270411


X =

  -1.152305564789618


X =

  -1.291973679980974


X =

  -1.432696277867860


X =

  -1.574494871562240


X =

  -1.717384776782561


X =

  -1.861376269899945


X =

  -2.006475517989240


X =

  -2.152685330283839


X =

  -2.300005768661070


X =

  -2.448434646072692


X =

  -2.597967935323155


X =

  -2.748600105685843


X =

  -2.900324401109839


X =

  -3.053133070902742


X =

  -3.207017561559543


X =

  -3.361968676683118


X =

  -3.517976710591013


X =

  -3.675031560138049


X =

  -3.833122818439733


X =

  -3.992239853507952


X =

  -4.152371874270470


X =

  -4.313507986010939


X =

     0


X =

  -0.133379610350980


X =

  -0.267014704968546


X =

  -0.401107424946700


X =

  -0.535814563612256


X =

  -0.671258169054156


X =

  -0.807533367890911


X =

  -0.944714222231728


X =

  -1.082858170894913


X =

  -1.222009436038913


X =

  -1.362201663375975


X =

  -1.503459987579344


X =

  -1.645802661725933


X =

  -1.789242352675916


X =

  -1.933787178060508


X =

  -2.079441541679836


X =

  -2.226206810374337


X =

  -2.374081865318885


X =

  -2.523063553165665


X =

  -2.673147056812241


X =

  -2.824326201290678


X =

  -2.976593707003259


X =

  -3.129941400012317


X =

  -3.284360387138754


X =

  -3.439841202098771


X =

  -3.596373927709664


X =

  -3.753948298247832


X =

  -3.912553785288401


X =

  -4.072179669753229


X =

  -4.232815102409801


X =

  -4.394449154672438


X =

  -0.066672639740081


X =

  -0.200151377589082


X =

  -0.333993139625726


X =

  -0.468375852526621


X =

  -0.603437808275229


X =

  -0.739286754599761


X =

  -0.876006652809757


X =

  -1.013662770270411


X =

  -1.152305564789618


X =

  -1.291973679980974


X =

  -1.432696277867860


X =

  -1.574494871562240


X =

  -1.717384776782561


X =

  -1.861376269899945


X =

  -2.006475517989240


X =

  -2.152685330283839


X =

  -2.300005768661070


X =

  -2.448434646072692


X =

  -2.597967935323155


X =

  -2.748600105685843


X =

  -2.900324401109839


X =

  -3.053133070902742


X =

  -3.207017561559543


X =

  -3.361968676683118


X =

  -3.517976710591013


X =

  -3.675031560138049


X =

  -3.833122818439733


X =

  -3.992239853507952


X =

  -4.152371874270470


X =

  -4.313507986010939


X =

  -0.023023339966051


X =

  -0.156430241151172


X =

  -0.290131343024284


X =

  -0.424320044449617


X =

  -0.559146472257403


X =

  -0.694727530603324


X =

  -0.831154335904588


X =

  -0.968497795647565


X =

  -1.106812847475681


X =

  -1.246141716842180


X =

  -1.386516446006837


X =

  -1.527960875445585


X =

  -1.670492209177537


X =

  -1.814122260728179


X =

  -1.958858451689863


X =

  -2.104704616992338


X =

  -2.251661657975250


X =

  -2.399728074751085


X =

  -2.548900402191527


X =

  -2.699173568488386


X =

  -2.850541191156328


X =

  -3.002995822220471


X =

  -3.156529151923114


X =

  -3.311132178413533


X =

  -3.466795349422418


X =

  -3.623508680772102


X =

  -3.781261855663019


X =

  -3.940044307951981


X =

  -4.099845292057780


X =

  -4.260653941663010


X =

  -0.110336739768441


X =

  -0.243911819551143


X =

  -0.377913207854740


X =

  -0.512504677758460


X =

  -0.647813652646316


X =

  -0.783939442668889


X =

  -0.920959396076384


X =

  -1.058933553798970


X =

  -1.197908212966426


X =

  -1.337918683995925


X =

  -1.478991444099203


X =

  -1.621145833853927


X =

  -1.764395404238478


X =

  -1.908748993728503


X =

  -2.054211595097505


X =

  -2.200785057063403


X =

  -2.348468655267501


X =

  -2.497259559160276


X =

  -2.647153215436214


X =

  -2.798143664172034


X =

  -2.950223800398631


X =

  -3.103385591204197


X =

  -3.257620256426435


X =

  -3.412918419400959


X =

  -3.569270232983960


X =

  -3.726665485080668


X =

  -3.885093687127328


X =

  -4.044544148348256


X =

  -4.205006038106845


X =

  -4.366468438263660


X =

     0


X =

  -0.066672639740081


X =

  -0.133379610350980


X =

  -0.200151377589082


X =

  -0.267014704968546


X =

  -0.333993139625726


X =

  -0.401107424946700


X =

  -0.468375852526621


X =

  -0.535814563612256


X =

  -0.603437808275229


X =

  -0.671258169054156


X =

  -0.739286754599761


X =

  -0.807533367890911


X =

  -0.876006652809757


X =

  -0.944714222231728


X =

  -1.013662770270411


X =

  -1.082858170894913


X =

  -1.152305564789618


X =

  -1.222009436038913


X =

  -1.291973679980974


X =

  -1.362201663375975


X =

  -1.432696277867860


X =

  -1.503459987579344


X =

  -1.574494871562240


X =

  -1.645802661725933


X =

  -1.717384776782561


X =

  -1.789242352675916


X =

  -1.861376269899945


X =

  -1.933787178060508


X =

  -2.006475517989240


X =

  -2.079441541679836


X =

  -2.152685330283839


X =

  -2.226206810374337


X =

  -2.300005768661070


X =

  -2.374081865318885


X =

  -2.448434646072692


X =

  -2.523063553165665


X =

  -2.597967935323155


X =

  -2.673147056812241


X =

  -2.748600105685843


X =

  -2.824326201290678


X =

  -2.900324401109839


X =

  -2.976593707003259


X =

  -3.053133070902742


X =

  -3.129941400012317


X =

  -3.207017561559543


X =

  -3.284360387138754


X =

  -3.361968676683118


X =

  -3.439841202098771


X =

  -3.517976710591013


X =

  -3.596373927709664


X =

  -3.675031560138049


X =

  -3.753948298247832


X =

  -3.833122818439733


X =

  -3.912553785288401


X =

  -3.992239853507952


X =

  -4.072179669753229


X =

  -4.152371874270470


X =

  -4.232815102409801


X =

  -4.313507986010939


X =

  -4.394449154672438


X =

  -0.033334092268275


X =

  -0.100019836547336


X =

  -0.166755640986534


X =

  -0.233570054340765


X =

  -0.300488176106591


X =

  -0.367532104021952


X =

  -0.434721314953277


X =

  -0.502072990456972


X =

  -0.569602296158781


X =

  -0.637322622400733


X =

  -0.705245792258295


X =

  -0.773382241952552


X =

  -0.841741177814855


X =

  -0.910330713259583


X =

  -0.979157988649931


X =

  -1.048229276475119


X =

  -1.117550073874446


X =

  -1.187125184227637


X =

  -1.256958789269355


X =

  -1.327054512968096


X =

  -1.397415478228076


X =

  -1.468044357320470


X =

  -1.538943416822412


X =

  -1.610114557734126


X =

  -1.681559351353171


X =

  -1.753279071407166


X =

  -1.825274722880192


X =

  -1.897547067911686


X =

  -1.970096649098184


X =

  -2.042923810486796


X =

  -2.116028716513498


X =

  -2.189411369108466


X =

  -2.263071623163952


X =

  -2.337009200537062


X =

  -2.411223702739650


X =

  -2.485714622449978


X =

  -2.560481353965551


X =

  -2.635523202703068


X =

  -2.710839393839779


X =

  -2.786429080180160


X =

  -2.862291349322827


X =

  -2.938425230194579


X =

  -3.014829699011451


X =

  -3.091503684720393


X =

  -3.168446073969699


X =

  -3.245655715651430


X =

  -3.323131425054688


X =

  -3.400871987664773


X =

  -3.478876162639783


X =

  -3.557142685993179


X =

  -3.635670273508035


X =

  -3.714457623406326


X =

  -3.793503418794300


X =

  -3.872806329903109


X =

  -3.952365016142045


X =

  -4.032178127980154


X =

  -4.112244308670551


X =

  -4.192562195830537


X =

  -4.273130422889328


X =

  -4.353947620414306


X =

     0


X =

     0


X =

     0


X =

     0


X =

  -0.066672639740081


X =

  -0.066672639740081


X =

  -0.133379610350980


X =

  -0.133379610350980


X =

  -0.200151377589082


X =

  -0.200151377589082


X =

  -0.267014704968546


X =

  -0.267014704968546


X =

  -0.333993139625726


X =

  -0.333993139625726


X =

  -0.401107424946700


X =

  -0.401107424946700


X =

  -0.468375852526621


X =

  -0.468375852526621


X =

  -0.535814563612256


X =

  -0.535814563612256


X =

  -0.603437808275229


X =

  -0.603437808275229


X =

  -0.671258169054156


X =

  -0.671258169054156


X =

  -0.739286754599761


X =

  -0.739286754599761


X =

  -0.807533367890911


X =

  -0.807533367890911


X =

  -0.876006652809757


X =

  -0.876006652809757


X =

  -0.944714222231728


X =

  -0.944714222231728


X =

  -1.013662770270411


X =

  -1.013662770270411


X =

  -1.082858170894913


X =

  -1.082858170894913


X =

  -1.152305564789618


X =

  -1.152305564789618


X =

  -1.222009436038913


X =

  -1.222009436038913


X =

  -1.291973679980974


X =

  -1.291973679980974


X =

  -1.362201663375975


X =

  -1.362201663375975


X =

  -1.432696277867860


X =

  -1.432696277867860


X =

  -1.503459987579344


X =

  -1.503459987579344


X =

  -1.574494871562240


X =

  -1.574494871562240


X =

  -1.645802661725933


X =

  -1.645802661725933


X =

  -1.717384776782561


X =

  -1.717384776782561


X =

  -1.789242352675916


X =

  -1.789242352675916


X =

  -1.861376269899945


X =

  -1.861376269899945


X =

  -1.933787178060508


X =

  -1.933787178060508


X =

  -2.006475517989240


X =

  -2.006475517989240


X =

  -2.079441541679836


X =

  -2.079441541679836


X =

  -2.152685330283839


X =

  -2.152685330283839


X =

  -2.226206810374337


X =

  -2.226206810374337


X =

  -2.300005768661070


X =

  -2.300005768661070


X =

  -2.374081865318885


X =

  -2.374081865318885


X =

  -2.448434646072692


X =

  -2.448434646072692


X =

  -2.523063553165665


X =

  -2.523063553165665


X =

  -2.597967935323155


X =

  -2.597967935323155


X =

  -2.673147056812241


X =

  -2.673147056812241


X =

  -2.748600105685843


X =

  -2.748600105685843


X =

  -2.824326201290678


X =

  -2.824326201290678


X =

  -2.900324401109839


X =

  -2.900324401109839


X =

  -2.976593707003259


X =

  -2.976593707003259


X =

  -3.053133070902742


X =

  -3.053133070902742


X =

  -3.129941400012317


X =

  -3.129941400012317


X =

  -3.207017561559543


X =

  -3.207017561559543


X =

  -3.284360387138754


X =

  -3.284360387138754


X =

  -3.361968676683118


X =

  -3.361968676683118


X =

  -3.439841202098771


X =

  -3.439841202098771


X =

  -3.517976710591013


X =

  -3.517976710591013


X =

  -3.596373927709664


X =

  -3.596373927709664


X =

  -3.675031560138049


X =

  -3.675031560138049


X =

  -3.753948298247832


X =

  -3.753948298247832


X =

  -3.833122818439733


X =

  -3.833122818439733


X =

  -3.912553785288401


X =

  -3.912553785288401


X =

  -3.992239853507952


X =

  -3.992239853507952


X =

  -4.072179669753229


X =

  -4.072179669753229


X =

  -4.152371874270470


X =

  -4.152371874270470


X =

  -4.232815102409801


X =

  -4.232815102409801


X =

  -4.313507986010939


X =

  -4.313507986010939


X =

  -4.394449154672438


X =

  -4.394449154672438


X =

     0


X =

  -0.066672639740081


X =

  -0.133379610350980


X =

  -0.200151377589082


X =

  -0.267014704968546


X =

  -0.333993139625726


X =

  -0.401107424946700


X =

  -0.468375852526621


X =

  -0.535814563612256


X =

  -0.603437808275229


X =

  -0.671258169054156


X =

  -0.739286754599761


X =

  -0.807533367890911


X =

  -0.876006652809757


X =

  -0.944714222231728


X =

  -1.013662770270411


X =

  -1.082858170894913


X =

  -1.152305564789618


X =

  -1.222009436038913


X =

  -1.291973679980974


X =

  -1.362201663375975


X =

  -1.432696277867860


X =

  -1.503459987579344


X =

  -1.574494871562240


X =

  -1.645802661725933


X =

  -1.717384776782561


X =

  -1.789242352675916


X =

  -1.861376269899945


X =

  -1.933787178060508


X =

  -2.006475517989240


X =

  -2.079441541679836


X =

  -2.152685330283839


X =

  -2.226206810374337


X =

  -2.300005768661070


X =

  -2.374081865318885


X =

  -2.448434646072692


X =

  -2.523063553165665


X =

  -2.597967935323155


X =

  -2.673147056812241


X =

  -2.748600105685843


X =

  -2.824326201290678


X =

  -2.900324401109839


X =

  -2.976593707003259


X =

  -3.053133070902742


X =

  -3.129941400012317


X =

  -3.207017561559543


X =

  -3.284360387138754


X =

  -3.361968676683118


X =

  -3.439841202098771


X =

  -3.517976710591013


X =

  -3.596373927709664


X =

  -3.675031560138049


X =

  -3.753948298247832


X =

  -3.833122818439733


X =

  -3.912553785288401


X =

  -3.992239853507952


X =

  -4.072179669753229


X =

  -4.152371874270470


X =

  -4.232815102409801


X =

  -4.313507986010939


X =

  -4.394449154672438


X =

  -0.033334092268275


X =

  -0.100019836547336


X =

  -0.166755640986534


X =

  -0.233570054340765


X =

  -0.300488176106591


X =

  -0.367532104021952


X =

  -0.434721314953277


X =

  -0.502072990456972


X =

  -0.569602296158781


X =

  -0.637322622400733


X =

  -0.705245792258295


X =

  -0.773382241952552


X =

  -0.841741177814855


X =

  -0.910330713259583


X =

  -0.979157988649931


X =

  -1.048229276475119


X =

  -1.117550073874446


X =

  -1.187125184227637


X =

  -1.256958789269355


X =

  -1.327054512968096


X =

  -1.397415478228076


X =

  -1.468044357320470


X =

  -1.538943416822412


X =

  -1.610114557734126


X =

  -1.681559351353171


X =

  -1.753279071407166


X =

  -1.825274722880192


X =

  -1.897547067911686


X =

  -1.970096649098184


X =

  -2.042923810486796


X =

  -2.116028716513498


X =

  -2.189411369108466


X =

  -2.263071623163952


X =

  -2.337009200537062


X =

  -2.411223702739650


X =

  -2.485714622449978


X =

  -2.560481353965551


X =

  -2.635523202703068


X =

  -2.710839393839779


X =

  -2.786429080180160


X =

  -2.862291349322827


X =

  -2.938425230194579


X =

  -3.014829699011451


X =

  -3.091503684720393


X =

  -3.168446073969699


X =

  -3.245655715651430


X =

  -3.323131425054688


X =

  -3.400871987664773


X =

  -3.478876162639783


X =

  -3.557142685993179


X =

  -3.635670273508035


X =

  -3.714457623406326


X =

  -3.793503418794300


X =

  -3.872806329903109


X =

  -3.952365016142045


X =

  -4.032178127980154


X =

  -4.112244308670551


X =

  -4.192562195830537


X =

  -4.273130422889328


X =

  -4.353947620414306


X =

  -0.011511575908168


X =

  -0.078187789516053


X =

  -0.144903882802120


X =

  -0.211689643898342


X =

  -0.278571248457553


X =

  -0.345571731849556


X =

  -0.412711390490197


X =

  -0.480008124411670


X =

  -0.547477730863795


X =

  -0.615134156907777


X =

  -0.682989717513057


X =

  -0.751055284509140


X =

  -0.819340450813579


X =

  -0.887853673605569


X =

  -0.956602399504205


X =

  -1.025593174312433


X =

  -1.094831739479341


X =

  -1.164323117097146


X =

  -1.234071684971064


X =

  -1.304081243069209


X =

  -1.374355072467042


X =

  -1.444895987739681


X =

  -1.515706383619958


X =

  -1.586788276625989


X =

  -1.658143342265511


X =

  -1.729772948342375


X =

  -1.801678184820936


X =

  -1.873859890644609


X =

  -1.946318677854036


X =

  -2.019054953306624


X =

  -2.092068938261669


X =

  -2.165360686062924


X =

  -2.238930098122418


X =

  -2.312776938385130


X =

  -2.386900846432976


X =

  -2.461301349368306


X =

  -2.535977872601024


X =

  -2.610929749649542


X =

  -2.686156231053449


X =

  -2.761656492485101


X =

  -2.837429642137850


X =

  -2.913474727460332


X =

  -2.989790741298875


X =

  -3.066376627503634


X =

  -3.143231286048286


X =

  -3.220353577708073


X =

  -3.297742328336415


X =

  -3.375396332776347


X =

  -3.453314358439419


X =

  -3.531495148581543


X =

  -3.609937425302393


X =

  -3.688639892292450


X =

  -3.767601237349462


X =

  -3.846820134684112


X =

  -3.926295247032773


X =

  -4.006025227593649


X =

  -4.086008721801099


X =

  -4.166244368951577


X =

  -4.246730803693450


X =

  -4.327466657391894


X =

  -0.055158523849820


X =

  -0.121857278773902


X =

  -0.188615848969138


X =

  -0.255461600260088


X =

  -0.322418603822480


X =

  -0.389508060482345


X =

  -0.456748662365854


X =

  -0.524156902428089


X =

  -0.591747340405950


X =

  -0.659532832169996


X =

  -0.727524728198625


X =

  -0.795733045894730


X =

  -0.864166619656219


X =

  -0.932833231956229


X =

  -1.001739728154878


X =

  -1.070892117327305


X =

  -1.140295661033263


X =

  -1.209954951656692


X =

  -1.279873981697458


X =

  -1.350056205192443


X =

  -1.420504592271778


X =

  -1.491221677712263


X =

  -1.562209604228995


X =

  -1.633470161143988


X =

  -1.705004818983963


X =

  -1.776814760485829


X =

  -1.848900908425656


X =

  -1.921263950633217


X =

  -1.993904362508229


X =

  -2.066822427314845


X =

  -2.140018254496879


X =

  -2.213491796226829


X =

  -2.287242862376255


X =

  -2.361271134072960


X =

  -2.435576175991169


X =

  -2.510157447504165


X =

  -2.585014312814149


X =

  -2.660146050161308


X =

  -2.735551860202809


X =

  -2.811230873642601


X =

  -2.887182158184161


X =

  -2.963404724870714


X =

  -3.039897533870652


X =

  -3.116659499759922


X =

  -3.193689496347815


X =

  -3.270986361087926


X =

  -3.348548899111839


X =

  -3.426375886919385


X =

  -3.504466075755998


X =

  -3.582818194704735


X =

  -3.661430953517906


X =

  -3.740303045210828


X =

  -3.819433148438178


X =

  -3.898819929671442


X =

  -3.978462045194321


X =

  -4.058358142931336


X =

  -4.138506864123577


X =

  -4.218906844864208


X =

  -4.299556717505323


X =

  -4.380455111946567


X =

     0


X =

  -0.066672639740081


X =

  -0.133379610350980


X =

  -0.200151377589082


X =

  -0.267014704968546


X =

  -0.333993139625726


X =

  -0.401107424946700


X =

  -0.468375852526621


X =

  -0.535814563612256


X =

  -0.603437808275229


X =

  -0.671258169054156


X =

  -0.739286754599761


X =

  -0.807533367890911


X =

  -0.876006652809757


X =

  -0.944714222231728


X =

  -1.013662770270411


X =

  -1.082858170894913


X =

  -1.152305564789618


X =

  -1.222009436038913


X =

  -1.291973679980974


X =

  -1.362201663375975


X =

  -1.432696277867860


X =

  -1.503459987579344


X =

  -1.538943416822412


X =

  -1.574494871562240


X =

  -1.610114557734126


X =

  -1.645802661725933


X =

  -1.681559351353171


X =

  -1.717384776782561


X =

  -1.753279071407166


X =

  -1.789242352675916


X =

  -1.825274722880192


X =

  -1.861376269899945


X =

  -1.897547067911686


X =

  -1.933787178060508


X =

  -1.970096649098184


X =

  -2.006475517989240


X =

  -2.042923810486796


X =

  -2.079441541679836


X =

  -2.116028716513498


X =

  -2.152685330283839


X =

  -2.189411369108466


X =

  -2.226206810374337


X =

  -2.263071623163952


X =

  -2.300005768661070


X =

  -2.337009200537062


X =

  -2.374081865318885


X =

  -2.448434646072692


X =

  -2.523063553165665


X =

  -2.597967935323155


X =

  -2.673147056812241


X =

  -2.748600105685843


X =

  -2.824326201290678


X =

  -2.900324401109839


X =

  -2.976593707003259


X =

  -3.053133070902742


X =

  -3.129941400012317


X =

  -3.207017561559543


X =

  -3.284360387138754


X =

  -3.361968676683118


X =

  -3.439841202098771


X =

  -3.517976710591013


X =

  -3.596373927709664


X =

  -3.675031560138049


X =

  -3.753948298247832


X =

  -3.833122818439733


X =

  -3.912553785288401


X =

  -3.992239853507952


X =

  -4.072179669753229


X =

  -4.152371874270470


X =

  -4.232815102409801


X =

  -4.313507986010939


X =

  -4.394449154672438


X =

  -0.033334092268275


X =

  -0.100019836547336


X =

  -0.166755640986534


X =

  -0.233570054340765


X =

  -0.300488176106591


X =

  -0.367532104021952


X =

  -0.434721314953277


X =

  -0.502072990456972


X =

  -0.569602296158781


X =

  -0.637322622400733


X =

  -0.705245792258295


X =

  -0.773382241952552


X =

  -0.841741177814855


X =

  -0.910330713259583


X =

  -0.979157988649931


X =

  -1.048229276475119


X =

  -1.117550073874446


X =

  -1.187125184227637


X =

  -1.256958789269355


X =

  -1.327054512968096


X =

  -1.397415478228076


X =

  -1.468044357320470


X =

  -1.521193212676081


X =

  -1.556710627664340


X =

  -1.592296173623477


X =

  -1.627950046589847


X =

  -1.663672423546545


X =

  -1.699463463372335


X =

  -1.735323307740634


X =

  -1.771252081971492


X =

  -1.807249895839325


X =

  -1.843316844338973


X =

  -1.879453008412463


X =

  -1.915658455638761


X =

  -1.951933240888584


X =

  -1.988277406946251


X =

  -2.024690985100429


X =

  -2.061173995705482


X =

  -2.097726448715065


X =

  -2.134348344189470


X =

  -2.171039672778154


X =

  -2.207800416178806


X =

  -2.244630547574185


X =

  -2.281530032047940


X =

  -2.318498826980516


X =

  -2.355536882426188


X =

  -2.411223702739650


X =

  -2.485714622449978


X =

  -2.560481353965551


X =

  -2.635523202703068


X =

  -2.710839393839779


X =

  -2.786429080180160


X =

  -2.862291349322827


X =

  -2.938425230194579


X =

  -3.014829699011451


X =

  -3.091503684720393


X =

  -3.168446073969699


X =

  -3.245655715651430


X =

  -3.323131425054688


X =

  -3.400871987664773


X =

  -3.478876162639783


X =

  -3.557142685993179


X =

  -3.635670273508035


X =

  -3.714457623406326


X =

  -3.793503418794300


X =

  -3.872806329903109


X =

  -3.952365016142045


X =

  -4.032178127980154


X =

  -4.112244308670551


X =

  -4.192562195830537


X =

  -4.273130422889328


X =

  -4.353947620414306


X =

     0


X =

     0


X =

     0


X =

     0


X =

  -0.066672639740081


X =

  -0.066672639740081


X =

  -0.133379610350980


X =

  -0.133379610350980


X =

  -0.200151377589082


X =

  -0.200151377589082


X =

  -0.267014704968546


X =

  -0.267014704968546


X =

  -0.333993139625726


X =

  -0.333993139625726


X =

  -0.401107424946700


X =

  -0.401107424946700


X =

  -0.468375852526621


X =

  -0.468375852526621


X =

  -0.535814563612256


X =

  -0.535814563612256


X =

  -0.603437808275229


X =

  -0.603437808275229


X =

  -0.671258169054156


X =

  -0.671258169054156


X =

  -0.739286754599761


X =

  -0.739286754599761


X =

  -0.807533367890911


X =

  -0.807533367890911


X =

  -0.876006652809757


X =

  -0.876006652809757


X =

  -0.944714222231728


X =

  -0.944714222231728


X =

  -1.013662770270411


X =

  -1.013662770270411


X =

  -1.082858170894913


X =

  -1.082858170894913


X =

  -1.152305564789618


X =

  -1.152305564789618


X =

  -1.222009436038913


X =

  -1.222009436038913


X =

  -1.291973679980974


X =

  -1.291973679980974


X =

  -1.362201663375975


X =

  -1.362201663375975


X =

  -1.432696277867860


X =

  -1.432696277867860


X =

  -1.503459987579344


X =

  -1.503459987579344


X =

  -1.538943416822412


X =

  -1.538943416822412


X =

  -1.574494871562240


X =

  -1.574494871562240


X =

  -1.610114557734126


X =

  -1.610114557734126


X =

  -1.645802661725933


X =

  -1.645802661725933


X =

  -1.681559351353171


X =

  -1.681559351353171


X =

  -1.717384776782561


X =

  -1.717384776782561


X =

  -1.753279071407166


X =

  -1.753279071407166


X =

  -1.789242352675916


X =

  -1.789242352675916


X =

  -1.825274722880192


X =

  -1.825274722880192


X =

  -1.861376269899945


X =

  -1.861376269899945


X =

  -1.897547067911686


X =

  -1.897547067911686


X =

  -1.933787178060508


X =

  -1.933787178060508


X =

  -1.970096649098184


X =

  -1.970096649098184


X =

  -2.006475517989240


X =

  -2.006475517989240


X =

  -2.042923810486796


X =

  -2.042923810486796


X =

  -2.079441541679836


X =

  -2.079441541679836


X =

  -2.116028716513498


X =

  -2.116028716513498


X =

  -2.152685330283839


X =

  -2.152685330283839


X =

  -2.189411369108466


X =

  -2.189411369108466


X =

  -2.226206810374337


X =

  -2.226206810374337


X =

  -2.263071623163952


X =

  -2.263071623163952


X =

  -2.300005768661070


X =

  -2.300005768661070


X =

  -2.337009200537062


X =

  -2.337009200537062


X =

  -2.374081865318885


X =

  -2.374081865318885


X =

  -2.448434646072692


X =

  -2.448434646072692


X =

  -2.523063553165665


X =

  -2.523063553165665


X =

  -2.597967935323155


X =

  -2.597967935323155


X =

  -2.673147056812241


X =

  -2.673147056812241


X =

  -2.748600105685843


X =

  -2.748600105685843


X =

  -2.824326201290678


X =

  -2.824326201290678


X =

  -2.900324401109839


X =

  -2.900324401109839


X =

  -2.976593707003259


X =

  -2.976593707003259


X =

  -3.053133070902742


X =

  -3.053133070902742


X =

  -3.129941400012317


X =

  -3.129941400012317


X =

  -3.207017561559543


X =

  -3.207017561559543


X =

  -3.284360387138754


X =

  -3.284360387138754


X =

  -3.361968676683118


X =

  -3.361968676683118


X =

  -3.439841202098771


X =

  -3.439841202098771


X =

  -3.517976710591013


X =

  -3.517976710591013


X =

  -3.596373927709664


X =

  -3.596373927709664


X =

  -3.675031560138049


X =

  -3.675031560138049


X =

  -3.753948298247832


X =

  -3.753948298247832


X =

  -3.833122818439733


X =

  -3.833122818439733


X =

  -3.912553785288401


X =

  -3.912553785288401


X =

  -3.992239853507952


X =

  -3.992239853507952


X =

  -4.072179669753229


X =

  -4.072179669753229


X =

  -4.152371874270470


X =

  -4.152371874270470


X =

  -4.232815102409801


X =

  -4.232815102409801


X =

  -4.313507986010939


X =

  -4.313507986010939


X =

  -4.394449154672438


X =

  -4.394449154672438


X =

     0


X =

  -0.066672639740081


X =

  -0.133379610350980


X =

  -0.200151377589082


X =

  -0.267014704968546


X =

  -0.333993139625726


X =

  -0.401107424946700


X =

  -0.468375852526621


X =

  -0.535814563612256


X =

  -0.603437808275229


X =

  -0.671258169054156


X =

  -0.739286754599761


X =

  -0.807533367890911


X =

  -0.876006652809757


X =

  -0.944714222231728


X =

  -1.013662770270411


X =

  -1.082858170894913


X =

  -1.152305564789618


X =

  -1.222009436038913


X =

  -1.291973679980974


X =

  -1.362201663375975


X =

  -1.432696277867860


X =

  -1.503459987579344


X =

  -1.538943416822412


X =

  -1.574494871562240


X =

  -1.610114557734126


X =

  -1.645802661725933


X =

  -1.681559351353171


X =

  -1.717384776782561


X =

  -1.753279071407166


X =

  -1.789242352675916


X =

  -1.825274722880192


X =

  -1.861376269899945


X =

  -1.897547067911686


X =

  -1.933787178060508


X =

  -1.970096649098184


X =

  -2.006475517989240


X =

  -2.042923810486796


X =

  -2.079441541679836


X =

  -2.116028716513498


X =

  -2.152685330283839


X =

  -2.189411369108466


X =

  -2.226206810374337


X =

  -2.263071623163952


X =

  -2.300005768661070


X =

  -2.337009200537062


X =

  -2.374081865318885


X =

  -2.448434646072692


X =

  -2.523063553165665


X =

  -2.597967935323155


X =

  -2.673147056812241


X =

  -2.748600105685843


X =

  -2.824326201290678


X =

  -2.900324401109839


X =

  -2.976593707003259


X =

  -3.053133070902742


X =

  -3.129941400012317


X =

  -3.207017561559543


X =

  -3.284360387138754


X =

  -3.361968676683118


X =

  -3.439841202098771


X =

  -3.517976710591013


X =

  -3.596373927709664


X =

  -3.675031560138049


X =

  -3.753948298247832


X =

  -3.833122818439733


X =

  -3.912553785288401


X =

  -3.992239853507952


X =

  -4.072179669753229


X =

  -4.152371874270470


X =

  -4.232815102409801


X =

  -4.313507986010939


X =

  -4.394449154672438


X =

  -0.033334092268275


X =

  -0.100019836547336


X =

  -0.166755640986534


X =

  -0.233570054340765


X =

  -0.300488176106591


X =

  -0.367532104021952


X =

  -0.434721314953277


X =

  -0.502072990456972


X =

  -0.569602296158781


X =

  -0.637322622400733


X =

  -0.705245792258295


X =

  -0.773382241952552


X =

  -0.841741177814855


X =

  -0.910330713259583


X =

  -0.979157988649931


X =

  -1.048229276475119


X =

  -1.117550073874446


X =

  -1.187125184227637


X =

  -1.256958789269355


X =

  -1.327054512968096


X =

  -1.397415478228076


X =

  -1.468044357320470


X =

  -1.521193212676081


X =

  -1.556710627664340


X =

  -1.592296173623477


X =

  -1.627950046589847


X =

  -1.663672423546545


X =

  -1.699463463372335


X =

  -1.735323307740634


X =

  -1.771252081971492


X =

  -1.807249895839325


X =

  -1.843316844338973


X =

  -1.879453008412463


X =

  -1.915658455638761


X =

  -1.951933240888584


X =

  -1.988277406946251


X =

  -2.024690985100429


X =

  -2.061173995705482


X =

  -2.097726448715065


X =

  -2.134348344189470


X =

  -2.171039672778154


X =

  -2.207800416178806


X =

  -2.244630547574185


X =

  -2.281530032047940


X =

  -2.318498826980516


X =

  -2.355536882426188


X =

  -2.411223702739650


X =

  -2.485714622449978


X =

  -2.560481353965551


X =

  -2.635523202703068


X =

  -2.710839393839779


X =

  -2.786429080180160


X =

  -2.862291349322827


X =

  -2.938425230194579


X =

  -3.014829699011451


X =

  -3.091503684720393


X =

  -3.168446073969699


X =

  -3.245655715651430


X =

  -3.323131425054688


X =

  -3.400871987664773


X =

  -3.478876162639783


X =

  -3.557142685993179


X =

  -3.635670273508035


X =

  -3.714457623406326


X =

  -3.793503418794300


X =

  -3.872806329903109


X =

  -3.952365016142045


X =

  -4.032178127980154


X =

  -4.112244308670551


X =

  -4.192562195830537


X =

  -4.273130422889328


X =

  -4.353947620414306


X =

  -0.011511575908168


X =

  -0.078187789516053


X =

  -0.144903882802120


X =

  -0.211689643898342


X =

  -0.278571248457553


X =

  -0.345571731849556


X =

  -0.412711390490197


X =

  -0.480008124411670


X =

  -0.547477730863795


X =

  -0.615134156907777


X =

  -0.682989717513057


X =

  -0.751055284509140


X =

  -0.819340450813579


X =

  -0.887853673605569


X =

  -0.956602399504205


X =

  -1.025593174312433


X =

  -1.094831739479341


X =

  -1.164323117097146


X =

  -1.234071684971064


X =

  -1.304081243069209


X =

  -1.374355072467042


X =

  -1.444895987739681


X =

  -1.509582174220086


X =

  -1.545077334049568


X =

  -1.580640556375637


X =

  -1.616272043686285


X =

  -1.651971979094262


X =

  -1.687740527303024


X =

  -1.723577835521731


X =

  -1.759484034332302


X =

  -1.795459238511343


X =

  -1.831503547809564


X =

  -1.867617047691163


X =

  -1.903799810035443


X =

  -1.940051893802844


X =

  -1.976373345667373


X =

  -2.012764200617335


X =

  -2.049224482526119


X =

  -2.085754204694709


X =

  -2.122353370367457


X =

  -2.159021973222581


X =

  -2.195759997838777


X =

  -2.232567420139186


X =

  -2.269444207813982


X =

  -2.306390320722667


X =

  -2.343405711277178


X =

  -2.386900846432976


X =

  -2.461301349368306


X =

  -2.535977872601024


X =

  -2.610929749649542


X =

  -2.686156231053449


X =

  -2.761656492485101


X =

  -2.837429642137850


X =

  -2.913474727460332


X =

  -2.989790741298875


X =

  -3.066376627503634


X =

  -3.143231286048286


X =

  -3.220353577708073


X =

  -3.297742328336415


X =

  -3.375396332776347


X =

  -3.453314358439419


X =

  -3.531495148581543


X =

  -3.609937425302393


X =

  -3.688639892292450


X =

  -3.767601237349462


X =

  -3.846820134684112


X =

  -3.926295247032773


X =

  -4.006025227593649


X =

  -4.086008721801099


X =

  -4.166244368951577


X =

  -4.246730803693450


X =

  -4.327466657391894


X =

  -0.055158523849820


X =

  -0.121857278773902


X =

  -0.188615848969138


X =

  -0.255461600260088


X =

  -0.322418603822480


X =

  -0.389508060482345


X =

  -0.456748662365854


X =

  -0.524156902428089


X =

  -0.591747340405950


X =

  -0.659532832169996


X =

  -0.727524728198625


X =

  -0.795733045894730


X =

  -0.864166619656219


X =

  -0.932833231956229


X =

  -1.001739728154878


X =

  -1.070892117327305


X =

  -1.140295661033263


X =

  -1.209954951656692


X =

  -1.279873981697458


X =

  -1.350056205192443


X =

  -1.420504592271778


X =

  -1.491221677712263


X =

  -1.532811527894535


X =

  -1.568351221185813


X =

  -1.603959111773928


X =

  -1.639635389350933


X =

  -1.675380224871913


X =

  -1.711193771487237


X =

  -1.747076165425839


X =

  -1.783027526832424


X =

  -1.819047960561278


X =

  -1.855137556929216


X =

  -1.891296392429983


X =

  -1.927524530412349


X =

  -1.963822021723919


X =

  -2.000188905322608


X =

  -2.036625208857574


X =

  -2.073130949221316


X =

  -2.109706133074507


X =

  -2.146350757345068


X =

  -2.183064809702868


X =

  -2.219848269011387


X =

  -2.256701105757541


X =

  -2.293623282460872


X =

  -2.330614754063148


X =

  -2.367675468299461


X =

  -2.435576175991169


X =

  -2.510157447504165


X =

  -2.585014312814149


X =

  -2.660146050161308


X =

  -2.735551860202809


X =

  -2.811230873642601


X =

  -2.887182158184161


X =

  -2.963404724870714


X =

  -3.039897533870652


X =

  -3.116659499759922


X =

  -3.193689496347815


X =

  -3.270986361087926


X =

  -3.348548899111839


X =

  -3.426375886919385


X =

  -3.504466075755998


X =

  -3.582818194704735


X =

  -3.661430953517906


X =

  -3.740303045210828


X =

  -3.819433148438178


X =

  -3.898819929671442


X =

  -3.978462045194321


X =

  -4.058358142931336


X =

  -4.138506864123577


X =

  -4.218906844864208


X =

  -4.299556717505323


X =

  -4.380455111946567

-1.00     2.92751 
-0.80     2.86707 
-0.60     2.68807 
-0.40     2.40484 
-0.20     2.04761 
 0.00     1.65978 
 0.20     1.28936 
 0.40     0.97670 
 0.60     0.74438 
 0.80     0.59446 
 1.00     0.51419 

ans = 

  <a href="matlab:helpPopup struct" style="font-weight:bold">struct</a> with fields:

    solver: 'bvp4c'
         x: [173 double]
         y: [273 double]
        yp: [273 double]
     stats: [11 struct]

clc
solex

X =

     0


X =

     0


X =

  -0.401107424946700


X =

  -0.807533367890911


X =

  -1.222009436038913


X =

  -1.645802661725933


X =

  -2.079441541679836


X =

  -2.523063553165665


X =

  -2.976593707003259


X =

  -3.439841202098771


X =

  -3.912553785288401


X =

  -4.394449154672438


X =

  -0.200151377589082


X =

  -0.603437808275229


X =

  -1.013662770270411


X =

  -1.432696277867860


X =

  -1.861376269899945


X =

  -2.300005768661070


X =

  -2.748600105685843


X =

  -3.207017561559543


X =

  -3.675031560138049


X =

  -4.152371874270470


X =

     0


X =

     0


X =

     0


X =

     0


X =

  -0.401107424946700


X =

  -0.401107424946700


X =

  -0.401107424946700


X =

  -0.807533367890911


X =

  -0.807533367890911


X =

  -0.807533367890911


X =

  -1.222009436038913


X =

  -1.222009436038913


X =

  -1.222009436038913


X =

  -1.645802661725933


X =

  -1.645802661725933


X =

  -2.079441541679836


X =

  -2.079441541679836


X =

  -2.523063553165665


X =

  -2.523063553165665


X =

  -2.976593707003259


X =

  -2.976593707003259


X =

  -3.439841202098771


X =

  -3.439841202098771


X =

  -3.912553785288401


X =

  -3.912553785288401


X =

  -4.394449154672438


X =

  -4.394449154672438


X =

     0


X =

  -0.401107424946700


X =

  -0.807533367890911


X =

  -1.222009436038913


X =

  -1.645802661725933


X =

  -2.079441541679836


X =

  -2.523063553165665


X =

  -2.976593707003259


X =

  -3.439841202098771


X =

  -3.912553785288401


X =

  -4.394449154672438


X =

  -0.200151377589082


X =

  -0.603437808275229


X =

  -1.013662770270411


X =

  -1.432696277867860


X =

  -1.861376269899945


X =

  -2.300005768661070


X =

  -2.748600105685843


X =

  -3.207017561559543


X =

  -3.675031560138049


X =

  -4.152371874270470


X =

     0


X =

  -0.401107424946700


X =

  -0.807533367890911


X =

  -1.222009436038913


X =

  -1.645802661725933


X =

  -2.079441541679836


X =

  -2.523063553165665


X =

  -2.976593707003259


X =

  -3.439841202098771


X =

  -3.912553785288401


X =

  -4.394449154672438


X =

  -0.200151377589082


X =

  -0.603437808275229


X =

  -1.013662770270411


X =

  -1.432696277867860


X =

  -1.861376269899945


X =

  -2.300005768661070


X =

  -2.748600105685843


X =

  -3.207017561559543


X =

  -3.675031560138049


X =

  -4.152371874270470


X =

     0


X =

  -0.401107424946700


X =

  -0.807533367890911


X =

  -1.222009436038913


X =

  -1.645802661725933


X =

  -2.079441541679836


X =

  -2.523063553165665


X =

  -2.976593707003259


X =

  -3.439841202098771


X =

  -3.912553785288401


X =

  -4.394449154672438


X =

  -0.200151377589082


X =

  -0.603437808275229


X =

  -1.013662770270411


X =

  -1.432696277867860


X =

  -1.861376269899945


X =

  -2.300005768661070


X =

  -2.748600105685843


X =

  -3.207017561559543


X =

  -3.675031560138049


X =

  -4.152371874270470


X =

  -0.069075900510995


X =

  -0.470803226813837


X =

  -0.878478691792177


X =

  -1.294500025560079


X =

  -1.719969660306379


X =

  -2.155330147371738


X =

  -2.600672547179795


X =

  -3.055896500077357


X =

  -3.520797528751821


X =

  -3.995116404090250


X =

  -0.331577061715120


X =

  -0.736831341295682


X =

  -1.149798321056461


X =

  -1.571930115263008


X =

  -2.003851081383934


X =

  -2.445750247136655


X =

  -2.897580787630030


X =

  -3.359167155232853


X =

  -3.830264986322924


X =

  -4.310595575198270


X =

     0


X =

  -0.133379610350980


X =

  -0.267014704968546


X =

  -0.401107424946700


X =

  -0.535814563612256


X =

  -0.671258169054156


X =

  -0.807533367890911


X =

  -0.944714222231728


X =

  -1.082858170894913


X =

  -1.222009436038913


X =

  -1.362201663375975


X =

  -1.503459987579344


X =

  -1.645802661725933


X =

  -1.789242352675916


X =

  -1.933787178060508


X =

  -2.079441541679836


X =

  -2.226206810374337


X =

  -2.374081865318885


X =

  -2.523063553165665


X =

  -2.673147056812241


X =

  -2.824326201290678


X =

  -2.976593707003259


X =

  -3.129941400012317


X =

  -3.284360387138754


X =

  -3.439841202098771


X =

  -3.596373927709664


X =

  -3.753948298247832


X =

  -3.912553785288401


X =

  -4.072179669753229


X =

  -4.232815102409801


X =

  -4.394449154672438


X =

  -0.066672639740081


X =

  -0.200151377589082


X =

  -0.333993139625726


X =

  -0.468375852526621


X =

  -0.603437808275229


X =

  -0.739286754599761


X =

  -0.876006652809757


X =

  -1.013662770270411


X =

  -1.152305564789618


X =

  -1.291973679980974


X =

  -1.432696277867860


X =

  -1.574494871562240


X =

  -1.717384776782561


X =

  -1.861376269899945


X =

  -2.006475517989240


X =

  -2.152685330283839


X =

  -2.300005768661070


X =

  -2.448434646072692


X =

  -2.597967935323155


X =

  -2.748600105685843


X =

  -2.900324401109839


X =

  -3.053133070902742


X =

  -3.207017561559543


X =

  -3.361968676683118


X =

  -3.517976710591013


X =

  -3.675031560138049


X =

  -3.833122818439733


X =

  -3.992239853507952


X =

  -4.152371874270470


X =

  -4.313507986010939


X =

     0


X =

     0


X =

     0


X =

     0


X =

  -0.133379610350980


X =

  -0.133379610350980


X =

  -0.267014704968546


X =

  -0.267014704968546


X =

  -0.401107424946700


X =

  -0.401107424946700


X =

  -0.535814563612256


X =

  -0.535814563612256


X =

  -0.671258169054156


X =

  -0.671258169054156


X =

  -0.807533367890911


X =

  -0.807533367890911


X =

  -0.944714222231728


X =

  -0.944714222231728


X =

  -1.082858170894913


X =

  -1.082858170894913


X =

  -1.222009436038913


X =

  -1.222009436038913


X =

  -1.362201663375975


X =

  -1.362201663375975


X =

  -1.503459987579344


X =

  -1.503459987579344


X =

  -1.645802661725933


X =

  -1.645802661725933


X =

  -1.789242352675916


X =

  -1.789242352675916


X =

  -1.933787178060508


X =

  -1.933787178060508


X =

  -2.079441541679836


X =

  -2.079441541679836


X =

  -2.226206810374337


X =

  -2.226206810374337


X =

  -2.374081865318885


X =

  -2.374081865318885


X =

  -2.523063553165665


X =

  -2.523063553165665


X =

  -2.673147056812241


X =

  -2.673147056812241


X =

  -2.824326201290678


X =

  -2.824326201290678


X =

  -2.976593707003259


X =

  -2.976593707003259


X =

  -3.129941400012317


X =

  -3.129941400012317


X =

  -3.284360387138754


X =

  -3.284360387138754


X =

  -3.439841202098771


X =

  -3.439841202098771


X =

  -3.596373927709664


X =

  -3.596373927709664


X =

  -3.753948298247832


X =

  -3.753948298247832


X =

  -3.912553785288401


X =

  -3.912553785288401


X =

  -4.072179669753229


X =

  -4.072179669753229


X =

  -4.232815102409801


X =

  -4.232815102409801


X =

  -4.394449154672438


X =

  -4.394449154672438


X =

     0


X =

  -0.133379610350980


X =

  -0.267014704968546


X =

  -0.401107424946700


X =

  -0.535814563612256


X =

  -0.671258169054156


X =

  -0.807533367890911


X =

  -0.944714222231728


X =

  -1.082858170894913


X =

  -1.222009436038913


X =

  -1.362201663375975


X =

  -1.503459987579344


X =

  -1.645802661725933


X =

  -1.789242352675916


X =

  -1.933787178060508


X =

  -2.079441541679836


X =

  -2.226206810374337


X =

  -2.374081865318885


X =

  -2.523063553165665


X =

  -2.673147056812241


X =

  -2.824326201290678


X =

  -2.976593707003259


X =

  -3.129941400012317


X =

  -3.284360387138754


X =

  -3.439841202098771


X =

  -3.596373927709664


X =

  -3.753948298247832


X =

  -3.912553785288401


X =

  -4.072179669753229


X =

  -4.232815102409801


X =

  -4.394449154672438


X =

  -0.066672639740081


X =

  -0.200151377589082


X =

  -0.333993139625726


X =

  -0.468375852526621


X =

  -0.603437808275229


X =

  -0.739286754599761


X =

  -0.876006652809757


X =

  -1.013662770270411


X =

  -1.152305564789618


X =

  -1.291973679980974


X =

  -1.432696277867860


X =

  -1.574494871562240


X =

  -1.717384776782561


X =

  -1.861376269899945


X =

  -2.006475517989240


X =

  -2.152685330283839


X =

  -2.300005768661070


X =

  -2.448434646072692


X =

  -2.597967935323155


X =

  -2.748600105685843


X =

  -2.900324401109839


X =

  -3.053133070902742


X =

  -3.207017561559543


X =

  -3.361968676683118


X =

  -3.517976710591013


X =

  -3.675031560138049


X =

  -3.833122818439733


X =

  -3.992239853507952


X =

  -4.152371874270470


X =

  -4.313507986010939


X =

     0


X =

  -0.133379610350980


X =

  -0.267014704968546


X =

  -0.401107424946700


X =

  -0.535814563612256


X =

  -0.671258169054156


X =

  -0.807533367890911


X =

  -0.944714222231728


X =

  -1.082858170894913


X =

  -1.222009436038913


X =

  -1.362201663375975


X =

  -1.503459987579344


X =

  -1.645802661725933


X =

  -1.789242352675916


X =

  -1.933787178060508


X =

  -2.079441541679836


X =

  -2.226206810374337


X =

  -2.374081865318885


X =

  -2.523063553165665


X =

  -2.673147056812241


X =

  -2.824326201290678


X =

  -2.976593707003259


X =

  -3.129941400012317


X =

  -3.284360387138754


X =

  -3.439841202098771


X =

  -3.596373927709664


X =

  -3.753948298247832


X =

  -3.912553785288401


X =

  -4.072179669753229


X =

  -4.232815102409801


X =

  -4.394449154672438


X =

  -0.066672639740081


X =

  -0.200151377589082


X =

  -0.333993139625726


X =

  -0.468375852526621


X =

  -0.603437808275229


X =

  -0.739286754599761


X =

  -0.876006652809757


X =

  -1.013662770270411


X =

  -1.152305564789618


X =

  -1.291973679980974


X =

  -1.432696277867860


X =

  -1.574494871562240


X =

  -1.717384776782561


X =

  -1.861376269899945


X =

  -2.006475517989240


X =

  -2.152685330283839


X =

  -2.300005768661070


X =

  -2.448434646072692


X =

  -2.597967935323155


X =

  -2.748600105685843


X =

  -2.900324401109839


X =

  -3.053133070902742


X =

  -3.207017561559543


X =

  -3.361968676683118


X =

  -3.517976710591013


X =

  -3.675031560138049


X =

  -3.833122818439733


X =

  -3.992239853507952


X =

  -4.152371874270470


X =

  -4.313507986010939


X =

  -0.023023339966051


X =

  -0.156430241151172


X =

  -0.290131343024284


X =

  -0.424320044449617


X =

  -0.559146472257403


X =

  -0.694727530603324


X =

  -0.831154335904588


X =

  -0.968497795647565


X =

  -1.106812847475681


X =

  -1.246141716842180


X =

  -1.386516446006837


X =

  -1.527960875445585


X =

  -1.670492209177537


X =

  -1.814122260728179


X =

  -1.958858451689863


X =

  -2.104704616992338


X =

  -2.251661657975250


X =

  -2.399728074751085


X =

  -2.548900402191527


X =

  -2.699173568488386


X =

  -2.850541191156328


X =

  -3.002995822220471


X =

  -3.156529151923114


X =

  -3.311132178413533


X =

  -3.466795349422418


X =

  -3.623508680772102


X =

  -3.781261855663019


X =

  -3.940044307951981


X =

  -4.099845292057780


X =

  -4.260653941663010


X =

  -0.110336739768441


X =

  -0.243911819551143


X =

  -0.377913207854740


X =

  -0.512504677758460


X =

  -0.647813652646316


X =

  -0.783939442668889


X =

  -0.920959396076384


X =

  -1.058933553798970


X =

  -1.197908212966426


X =

  -1.337918683995925


X =

  -1.478991444099203


X =

  -1.621145833853927


X =

  -1.764395404238478


X =

  -1.908748993728503


X =

  -2.054211595097505


X =

  -2.200785057063403


X =

  -2.348468655267501


X =

  -2.497259559160276


X =

  -2.647153215436214


X =

  -2.798143664172034


X =

  -2.950223800398631


X =

  -3.103385591204197


X =

  -3.257620256426435


X =

  -3.412918419400959


X =

  -3.569270232983960


X =

  -3.726665485080668


X =

  -3.885093687127328


X =

  -4.044544148348256


X =

  -4.205006038106845


X =

  -4.366468438263660


X =

     0


X =

  -0.066672639740081


X =

  -0.133379610350980


X =

  -0.200151377589082


X =

  -0.267014704968546


X =

  -0.333993139625726


X =

  -0.401107424946700


X =

  -0.468375852526621


X =

  -0.535814563612256


X =

  -0.603437808275229


X =

  -0.671258169054156


X =

  -0.739286754599761


X =

  -0.807533367890911


X =

  -0.876006652809757


X =

  -0.944714222231728


X =

  -1.013662770270411


X =

  -1.082858170894913


X =

  -1.152305564789618


X =

  -1.222009436038913


X =

  -1.291973679980974


X =

  -1.362201663375975


X =

  -1.432696277867860


X =

  -1.503459987579344


X =

  -1.574494871562240


X =

  -1.645802661725933


X =

  -1.717384776782561


X =

  -1.789242352675916


X =

  -1.861376269899945


X =

  -1.933787178060508


X =

  -2.006475517989240


X =

  -2.079441541679836


X =

  -2.152685330283839


X =

  -2.226206810374337


X =

  -2.300005768661070


X =

  -2.374081865318885


X =

  -2.448434646072692


X =

  -2.523063553165665


X =

  -2.597967935323155


X =

  -2.673147056812241


X =

  -2.748600105685843


X =

  -2.824326201290678


X =

  -2.900324401109839


X =

  -2.976593707003259


X =

  -3.053133070902742


X =

  -3.129941400012317


X =

  -3.207017561559543


X =

  -3.284360387138754


X =

  -3.361968676683118


X =

  -3.439841202098771


X =

  -3.517976710591013


X =

  -3.596373927709664


X =

  -3.675031560138049


X =

  -3.753948298247832


X =

  -3.833122818439733


X =

  -3.912553785288401


X =

  -3.992239853507952


X =

  -4.072179669753229


X =

  -4.152371874270470


X =

  -4.232815102409801


X =

  -4.313507986010939


X =

  -4.394449154672438


X =

  -0.033334092268275


X =

  -0.100019836547336


X =

  -0.166755640986534


X =

  -0.233570054340765


X =

  -0.300488176106591


X =

  -0.367532104021952


X =

  -0.434721314953277


X =

  -0.502072990456972


X =

  -0.569602296158781


X =

  -0.637322622400733


X =

  -0.705245792258295


X =

  -0.773382241952552


X =

  -0.841741177814855


X =

  -0.910330713259583


X =

  -0.979157988649931


X =

  -1.048229276475119


X =

  -1.117550073874446


X =

  -1.187125184227637


X =

  -1.256958789269355


X =

  -1.327054512968096


X =

  -1.397415478228076


X =

  -1.468044357320470


X =

  -1.538943416822412


X =

  -1.610114557734126


X =

  -1.681559351353171


X =

  -1.753279071407166


X =

  -1.825274722880192


X =

  -1.897547067911686


X =

  -1.970096649098184


X =

  -2.042923810486796


X =

  -2.116028716513498


X =

  -2.189411369108466


X =

  -2.263071623163952


X =

  -2.337009200537062


X =

  -2.411223702739650


X =

  -2.485714622449978


X =

  -2.560481353965551


X =

  -2.635523202703068


X =

  -2.710839393839779


X =

  -2.786429080180160


X =

  -2.862291349322827


X =

  -2.938425230194579


X =

  -3.014829699011451


X =

  -3.091503684720393


X =

  -3.168446073969699


X =

  -3.245655715651430


X =

  -3.323131425054688


X =

  -3.400871987664773


X =

  -3.478876162639783


X =

  -3.557142685993179


X =

  -3.635670273508035


X =

  -3.714457623406326


X =

  -3.793503418794300


X =

  -3.872806329903109


X =

  -3.952365016142045


X =

  -4.032178127980154


X =

  -4.112244308670551


X =

  -4.192562195830537


X =

  -4.273130422889328


X =

  -4.353947620414306


X =

     0


X =

     0


X =

     0


X =

     0


X =

  -0.066672639740081


X =

  -0.066672639740081


X =

  -0.133379610350980


X =

  -0.133379610350980


X =

  -0.200151377589082


X =

  -0.200151377589082


X =

  -0.267014704968546


X =

  -0.267014704968546


X =

  -0.333993139625726


X =

  -0.333993139625726


X =

  -0.401107424946700


X =

  -0.401107424946700


X =

  -0.468375852526621


X =

  -0.468375852526621


X =

  -0.535814563612256


X =

  -0.535814563612256


X =

  -0.603437808275229


X =

  -0.603437808275229


X =

  -0.671258169054156


X =

  -0.671258169054156


X =

  -0.739286754599761


X =

  -0.739286754599761


X =

  -0.807533367890911


X =

  -0.807533367890911


X =

  -0.876006652809757


X =

  -0.876006652809757


X =

  -0.944714222231728


X =

  -0.944714222231728


X =

  -1.013662770270411


X =

  -1.013662770270411


X =

  -1.082858170894913


X =

  -1.082858170894913


X =

  -1.152305564789618


X =

  -1.152305564789618


X =

  -1.222009436038913


X =

  -1.222009436038913


X =

  -1.291973679980974


X =

  -1.291973679980974


X =

  -1.362201663375975


X =

  -1.362201663375975


X =

  -1.432696277867860


X =

  -1.432696277867860


X =

  -1.503459987579344


X =

  -1.503459987579344


X =

  -1.574494871562240


X =

  -1.574494871562240


X =

  -1.645802661725933


X =

  -1.645802661725933


X =

  -1.717384776782561


X =

  -1.717384776782561


X =

  -1.789242352675916


X =

  -1.789242352675916


X =

  -1.861376269899945


X =

  -1.861376269899945


X =

  -1.933787178060508


X =

  -1.933787178060508


X =

  -2.006475517989240


X =

  -2.006475517989240


X =

  -2.079441541679836


X =

  -2.079441541679836


X =

  -2.152685330283839


X =

  -2.152685330283839


X =

  -2.226206810374337


X =

  -2.226206810374337


X =

  -2.300005768661070


X =

  -2.300005768661070


X =

  -2.374081865318885


X =

  -2.374081865318885


X =

  -2.448434646072692


X =

  -2.448434646072692


X =

  -2.523063553165665


X =

  -2.523063553165665


X =

  -2.597967935323155


X =

  -2.597967935323155


X =

  -2.673147056812241


X =

  -2.673147056812241


X =

  -2.748600105685843


X =

  -2.748600105685843


X =

  -2.824326201290678


X =

  -2.824326201290678


X =

  -2.900324401109839


X =

  -2.900324401109839


X =

  -2.976593707003259


X =

  -2.976593707003259


X =

  -3.053133070902742


X =

  -3.053133070902742


X =

  -3.129941400012317


X =

  -3.129941400012317


X =

  -3.207017561559543


X =

  -3.207017561559543


X =

  -3.284360387138754


X =

  -3.284360387138754


X =

  -3.361968676683118


X =

  -3.361968676683118


X =

  -3.439841202098771


X =

  -3.439841202098771


X =

  -3.517976710591013


X =

  -3.517976710591013


X =

  -3.596373927709664


X =

  -3.596373927709664


X =

  -3.675031560138049


X =

  -3.675031560138049


X =

  -3.753948298247832


X =

  -3.753948298247832


X =

  -3.833122818439733


X =

  -3.833122818439733


X =

  -3.912553785288401


X =

  -3.912553785288401


X =

  -3.992239853507952


X =

  -3.992239853507952


X =

  -4.072179669753229


X =

  -4.072179669753229


X =

  -4.152371874270470


X =

  -4.152371874270470


X =

  -4.232815102409801


X =

  -4.232815102409801


X =

  -4.313507986010939


X =

  -4.313507986010939


X =

  -4.394449154672438


X =

  -4.394449154672438


X =

     0


X =

  -0.066672639740081


X =

  -0.133379610350980


X =

  -0.200151377589082


X =

  -0.267014704968546


X =

  -0.333993139625726


X =

  -0.401107424946700


X =

  -0.468375852526621


X =

  -0.535814563612256


X =

  -0.603437808275229


X =

  -0.671258169054156


X =

  -0.739286754599761


X =

  -0.807533367890911


X =

  -0.876006652809757


X =

  -0.944714222231728


X =

  -1.013662770270411


X =

  -1.082858170894913


X =

  -1.152305564789618


X =

  -1.222009436038913


X =

  -1.291973679980974


X =

  -1.362201663375975


X =

  -1.432696277867860


X =

  -1.503459987579344


X =

  -1.574494871562240


X =

  -1.645802661725933


X =

  -1.717384776782561


X =

  -1.789242352675916


X =

  -1.861376269899945


X =

  -1.933787178060508


X =

  -2.006475517989240


X =

  -2.079441541679836


X =

  -2.152685330283839


X =

  -2.226206810374337


X =

  -2.300005768661070


X =

  -2.374081865318885


X =

  -2.448434646072692


X =

  -2.523063553165665


X =

  -2.597967935323155


X =

  -2.673147056812241


X =

  -2.748600105685843


X =

  -2.824326201290678


X =

  -2.900324401109839


X =

  -2.976593707003259


X =

  -3.053133070902742


X =

  -3.129941400012317


X =

  -3.207017561559543


X =

  -3.284360387138754


X =

  -3.361968676683118


X =

  -3.439841202098771


X =

  -3.517976710591013


X =

  -3.596373927709664


X =

  -3.675031560138049


X =

  -3.753948298247832


X =

  -3.833122818439733


X =

  -3.912553785288401


X =

  -3.992239853507952


X =

  -4.072179669753229


X =

  -4.152371874270470


X =

  -4.232815102409801


X =

  -4.313507986010939


X =

  -4.394449154672438


X =

  -0.033334092268275


X =

  -0.100019836547336


X =

  -0.166755640986534


X =

  -0.233570054340765


X =

  -0.300488176106591


X =

  -0.367532104021952


X =

  -0.434721314953277


X =

  -0.502072990456972


X =

  -0.569602296158781


X =

  -0.637322622400733


X =

  -0.705245792258295


X =

  -0.773382241952552


X =

  -0.841741177814855


X =

  -0.910330713259583


X =

  -0.979157988649931


X =

  -1.048229276475119


X =

  -1.117550073874446


X =

  -1.187125184227637


X =

  -1.256958789269355


X =

  -1.327054512968096


X =

  -1.397415478228076


X =

  -1.468044357320470


X =

  -1.538943416822412


X =

  -1.610114557734126


X =

  -1.681559351353171


X =

  -1.753279071407166


X =

  -1.825274722880192


X =

  -1.897547067911686


X =

  -1.970096649098184


X =

  -2.042923810486796


X =

  -2.116028716513498


X =

  -2.189411369108466


X =

  -2.263071623163952


X =

  -2.337009200537062


X =

  -2.411223702739650


X =

  -2.485714622449978


X =

  -2.560481353965551


X =

  -2.635523202703068


X =

  -2.710839393839779


X =

  -2.786429080180160


X =

  -2.862291349322827


X =

  -2.938425230194579


X =

  -3.014829699011451


X =

  -3.091503684720393


X =

  -3.168446073969699


X =

  -3.245655715651430


X =

  -3.323131425054688


X =

  -3.400871987664773


X =

  -3.478876162639783


X =

  -3.557142685993179


X =

  -3.635670273508035


X =

  -3.714457623406326


X =

  -3.793503418794300


X =

  -3.872806329903109


X =

  -3.952365016142045


X =

  -4.032178127980154


X =

  -4.112244308670551


X =

  -4.192562195830537


X =

  -4.273130422889328


X =

  -4.353947620414306


X =

  -0.011511575908168


X =

  -0.078187789516053


X =

  -0.144903882802120


X =

  -0.211689643898342


X =

  -0.278571248457553


X =

  -0.345571731849556


X =

  -0.412711390490197


X =

  -0.480008124411670


X =

  -0.547477730863795


X =

  -0.615134156907777


X =

  -0.682989717513057


X =

  -0.751055284509140


X =

  -0.819340450813579


X =

  -0.887853673605569


X =

  -0.956602399504205


X =

  -1.025593174312433


X =

  -1.094831739479341


X =

  -1.164323117097146


X =

  -1.234071684971064


X =

  -1.304081243069209


X =

  -1.374355072467042


X =

  -1.444895987739681


X =

  -1.515706383619958


X =

  -1.586788276625989


X =

  -1.658143342265511


X =

  -1.729772948342375


X =

  -1.801678184820936


X =

  -1.873859890644609


X =

  -1.946318677854036


X =

  -2.019054953306624


X =

  -2.092068938261669


X =

  -2.165360686062924


X =

  -2.238930098122418


X =

  -2.312776938385130


X =

  -2.386900846432976


X =

  -2.461301349368306


X =

  -2.535977872601024


X =

  -2.610929749649542


X =

  -2.686156231053449


X =

  -2.761656492485101


X =

  -2.837429642137850


X =

  -2.913474727460332


X =

  -2.989790741298875


X =

  -3.066376627503634


X =

  -3.143231286048286


X =

  -3.220353577708073


X =

  -3.297742328336415


X =

  -3.375396332776347


X =

  -3.453314358439419


X =

  -3.531495148581543


X =

  -3.609937425302393


X =

  -3.688639892292450


X =

  -3.767601237349462


X =

  -3.846820134684112


X =

  -3.926295247032773


X =

  -4.006025227593649


X =

  -4.086008721801099


X =

  -4.166244368951577


X =

  -4.246730803693450


X =

  -4.327466657391894


X =

  -0.055158523849820


X =

  -0.121857278773902


X =

  -0.188615848969138


X =

  -0.255461600260088


X =

  -0.322418603822480


X =

  -0.389508060482345


X =

  -0.456748662365854


X =

  -0.524156902428089


X =

  -0.591747340405950


X =

  -0.659532832169996


X =

  -0.727524728198625


X =

  -0.795733045894730


X =

  -0.864166619656219


X =

  -0.932833231956229


X =

  -1.001739728154878


X =

  -1.070892117327305


X =

  -1.140295661033263


X =

  -1.209954951656692


X =

  -1.279873981697458


X =

  -1.350056205192443


X =

  -1.420504592271778


X =

  -1.491221677712263


X =

  -1.562209604228995


X =

  -1.633470161143988


X =

  -1.705004818983963


X =

  -1.776814760485829


X =

  -1.848900908425656


X =

  -1.921263950633217


X =

  -1.993904362508229


X =

  -2.066822427314845


X =

  -2.140018254496879


X =

  -2.213491796226829


X =

  -2.287242862376255


X =

  -2.361271134072960


X =

  -2.435576175991169


X =

  -2.510157447504165


X =

  -2.585014312814149


X =

  -2.660146050161308


X =

  -2.735551860202809


X =

  -2.811230873642601


X =

  -2.887182158184161


X =

  -2.963404724870714


X =

  -3.039897533870652


X =

  -3.116659499759922


X =

  -3.193689496347815


X =

  -3.270986361087926


X =

  -3.348548899111839


X =

  -3.426375886919385


X =

  -3.504466075755998


X =

  -3.582818194704735


X =

  -3.661430953517906


X =

  -3.740303045210828


X =

  -3.819433148438178


X =

  -3.898819929671442


X =

  -3.978462045194321


X =

  -4.058358142931336


X =

  -4.138506864123577


X =

  -4.218906844864208


X =

  -4.299556717505323


X =

  -4.380455111946567


X =

     0


X =

  -0.066672639740081


X =

  -0.133379610350980


X =

  -0.200151377589082


X =

  -0.267014704968546


X =

  -0.333993139625726


X =

  -0.401107424946700


X =

  -0.468375852526621


X =

  -0.535814563612256


X =

  -0.603437808275229


X =

  -0.671258169054156


X =

  -0.739286754599761


X =

  -0.807533367890911


X =

  -0.876006652809757


X =

  -0.944714222231728


X =

  -1.013662770270411


X =

  -1.082858170894913


X =

  -1.152305564789618


X =

  -1.222009436038913


X =

  -1.291973679980974


X =

  -1.362201663375975


X =

  -1.432696277867860


X =

  -1.503459987579344


X =

  -1.538943416822412


X =

  -1.574494871562240


X =

  -1.610114557734126


X =

  -1.645802661725933


X =

  -1.681559351353171


X =

  -1.717384776782561


X =

  -1.753279071407166


X =

  -1.789242352675916


X =

  -1.825274722880192


X =

  -1.861376269899945


X =

  -1.897547067911686


X =

  -1.933787178060508


X =

  -1.970096649098184


X =

  -2.006475517989240


X =

  -2.042923810486796


X =

  -2.079441541679836


X =

  -2.116028716513498


X =

  -2.152685330283839


X =

  -2.189411369108466


X =

  -2.226206810374337


X =

  -2.263071623163952


X =

  -2.300005768661070


X =

  -2.337009200537062


X =

  -2.374081865318885


X =

  -2.448434646072692


X =

  -2.523063553165665


X =

  -2.597967935323155


X =

  -2.673147056812241


X =

  -2.748600105685843


X =

  -2.824326201290678


X =

  -2.900324401109839


X =

  -2.976593707003259


X =

  -3.053133070902742


X =

  -3.129941400012317


X =

  -3.207017561559543


X =

  -3.284360387138754


X =

  -3.361968676683118


X =

  -3.439841202098771


X =

  -3.517976710591013


X =

  -3.596373927709664


X =

  -3.675031560138049


X =

  -3.753948298247832


X =

  -3.833122818439733


X =

  -3.912553785288401


X =

  -3.992239853507952


X =

  -4.072179669753229


X =

  -4.152371874270470


X =

  -4.232815102409801


X =

  -4.313507986010939


X =

  -4.394449154672438


X =

  -0.033334092268275


X =

  -0.100019836547336


X =

  -0.166755640986534


X =

  -0.233570054340765


X =

  -0.300488176106591


X =

  -0.367532104021952


X =

  -0.434721314953277


X =

  -0.502072990456972


X =

  -0.569602296158781


X =

  -0.637322622400733


X =

  -0.705245792258295


X =

  -0.773382241952552


X =

  -0.841741177814855


X =

  -0.910330713259583


X =

  -0.979157988649931


X =

  -1.048229276475119


X =

  -1.117550073874446


X =

  -1.187125184227637


X =

  -1.256958789269355


X =

  -1.327054512968096


X =

  -1.397415478228076


X =

  -1.468044357320470


X =

  -1.521193212676081


X =

  -1.556710627664340


X =

  -1.592296173623477


X =

  -1.627950046589847


X =

  -1.663672423546545


X =

  -1.699463463372335


X =

  -1.735323307740634


X =

  -1.771252081971492


X =

  -1.807249895839325


X =

  -1.843316844338973


X =

  -1.879453008412463


X =

  -1.915658455638761


X =

  -1.951933240888584


X =

  -1.988277406946251


X =

  -2.024690985100429


X =

  -2.061173995705482


X =

  -2.097726448715065


X =

  -2.134348344189470


X =

  -2.171039672778154


X =

  -2.207800416178806


X =

  -2.244630547574185


X =

  -2.281530032047940


X =

  -2.318498826980516


X =

  -2.355536882426188


X =

  -2.411223702739650


X =

  -2.485714622449978


X =

  -2.560481353965551


X =

  -2.635523202703068


X =

  -2.710839393839779


X =

  -2.786429080180160


X =

  -2.862291349322827


X =

  -2.938425230194579


X =

  -3.014829699011451


X =

  -3.091503684720393


X =

  -3.168446073969699


X =

  -3.245655715651430


X =

  -3.323131425054688


X =

  -3.400871987664773


X =

  -3.478876162639783


X =

  -3.557142685993179


X =

  -3.635670273508035


X =

  -3.714457623406326


X =

  -3.793503418794300


X =

  -3.872806329903109


X =

  -3.952365016142045


X =

  -4.032178127980154


X =

  -4.112244308670551


X =

  -4.192562195830537


X =

  -4.273130422889328


X =

  -4.353947620414306


X =

     0


X =

     0


X =

     0


X =

     0


X =

  -0.066672639740081


X =

  -0.066672639740081


X =

  -0.133379610350980


X =

  -0.133379610350980


X =

  -0.200151377589082


X =

  -0.200151377589082


X =

  -0.267014704968546


X =

  -0.267014704968546


X =

  -0.333993139625726


X =

  -0.333993139625726


X =

  -0.401107424946700


X =

  -0.401107424946700


X =

  -0.468375852526621


X =

  -0.468375852526621


X =

  -0.535814563612256


X =

  -0.535814563612256


X =

  -0.603437808275229


X =

  -0.603437808275229


X =

  -0.671258169054156


X =

  -0.671258169054156


X =

  -0.739286754599761


X =

  -0.739286754599761


X =

  -0.807533367890911


X =

  -0.807533367890911


X =

  -0.876006652809757


X =

  -0.876006652809757


X =

  -0.944714222231728


X =

  -0.944714222231728


X =

  -1.013662770270411


X =

  -1.013662770270411


X =

  -1.082858170894913


X =

  -1.082858170894913


X =

  -1.152305564789618


X =

  -1.152305564789618


X =

  -1.222009436038913


X =

  -1.222009436038913


X =

  -1.291973679980974


X =

  -1.291973679980974


X =

  -1.362201663375975


X =

  -1.362201663375975


X =

  -1.432696277867860


X =

  -1.432696277867860


X =

  -1.503459987579344


X =

  -1.503459987579344


X =

  -1.538943416822412


X =

  -1.538943416822412


X =

  -1.574494871562240


X =

  -1.574494871562240


X =

  -1.610114557734126


X =

  -1.610114557734126


X =

  -1.645802661725933


X =

  -1.645802661725933


X =

  -1.681559351353171


X =

  -1.681559351353171


X =

  -1.717384776782561


X =

  -1.717384776782561


X =

  -1.753279071407166


X =

  -1.753279071407166


X =

  -1.789242352675916


X =

  -1.789242352675916


X =

  -1.825274722880192


X =

  -1.825274722880192


X =

  -1.861376269899945


X =

  -1.861376269899945


X =

  -1.897547067911686


X =

  -1.897547067911686


X =

  -1.933787178060508


X =

  -1.933787178060508


X =

  -1.970096649098184


X =

  -1.970096649098184


X =

  -2.006475517989240


X =

  -2.006475517989240


X =

  -2.042923810486796


X =

  -2.042923810486796


X =

  -2.079441541679836


X =

  -2.079441541679836


X =

  -2.116028716513498


X =

  -2.116028716513498


X =

  -2.152685330283839


X =

  -2.152685330283839


X =

  -2.189411369108466


X =

  -2.189411369108466


X =

  -2.226206810374337


X =

  -2.226206810374337


X =

  -2.263071623163952


X =

  -2.263071623163952


X =

  -2.300005768661070


X =

  -2.300005768661070


X =

  -2.337009200537062


X =

  -2.337009200537062


X =

  -2.374081865318885


X =

  -2.374081865318885


X =

  -2.448434646072692


X =

  -2.448434646072692


X =

  -2.523063553165665


X =

  -2.523063553165665


X =

  -2.597967935323155


X =

  -2.597967935323155


X =

  -2.673147056812241


X =

  -2.673147056812241


X =

  -2.748600105685843


X =

  -2.748600105685843


X =

  -2.824326201290678


X =

  -2.824326201290678


X =

  -2.900324401109839


X =

  -2.900324401109839


X =

  -2.976593707003259


X =

  -2.976593707003259


X =

  -3.053133070902742


X =

  -3.053133070902742


X =

  -3.129941400012317


X =

  -3.129941400012317


X =

  -3.207017561559543


X =

  -3.207017561559543


X =

  -3.284360387138754


X =

  -3.284360387138754


X =

  -3.361968676683118


X =

  -3.361968676683118


X =

  -3.439841202098771


X =

  -3.439841202098771


X =

  -3.517976710591013


X =

  -3.517976710591013


X =

  -3.596373927709664


X =

  -3.596373927709664


X =

  -3.675031560138049


X =

  -3.675031560138049


X =

  -3.753948298247832


X =

  -3.753948298247832


X =

  -3.833122818439733


X =

  -3.833122818439733


X =

  -3.912553785288401


X =

  -3.912553785288401


X =

  -3.992239853507952


X =

  -3.992239853507952


X =

  -4.072179669753229


X =

  -4.072179669753229


X =

  -4.152371874270470


X =

  -4.152371874270470


X =

  -4.232815102409801


X =

  -4.232815102409801


X =

  -4.313507986010939


X =

  -4.313507986010939


X =

  -4.394449154672438


X =

  -4.394449154672438


X =

     0


X =

  -0.066672639740081


X =

  -0.133379610350980


X =

  -0.200151377589082


X =

  -0.267014704968546


X =

  -0.333993139625726


X =

  -0.401107424946700


X =

  -0.468375852526621


X =

  -0.535814563612256


X =

  -0.603437808275229


X =

  -0.671258169054156


X =

  -0.739286754599761


X =

  -0.807533367890911


X =

  -0.876006652809757


X =

  -0.944714222231728


X =

  -1.013662770270411


X =

  -1.082858170894913


X =

  -1.152305564789618


X =

  -1.222009436038913


X =

  -1.291973679980974


X =

  -1.362201663375975


X =

  -1.432696277867860


X =

  -1.503459987579344


X =

  -1.538943416822412


X =

  -1.574494871562240


X =

  -1.610114557734126


X =

  -1.645802661725933


X =

  -1.681559351353171


X =

  -1.717384776782561


X =

  -1.753279071407166


X =

  -1.789242352675916


X =

  -1.825274722880192


X =

  -1.861376269899945


X =

  -1.897547067911686


X =

  -1.933787178060508


X =

  -1.970096649098184


X =

  -2.006475517989240


X =

  -2.042923810486796


X =

  -2.079441541679836


X =

  -2.116028716513498


X =

  -2.152685330283839


X =

  -2.189411369108466


X =

  -2.226206810374337


X =

  -2.263071623163952


X =

  -2.300005768661070


X =

  -2.337009200537062


X =

  -2.374081865318885


X =

  -2.448434646072692


X =

  -2.523063553165665


X =

  -2.597967935323155


X =

  -2.673147056812241


X =

  -2.748600105685843


X =

  -2.824326201290678


X =

  -2.900324401109839


X =

  -2.976593707003259


X =

  -3.053133070902742


X =

  -3.129941400012317


X =

  -3.207017561559543


X =

  -3.284360387138754


X =

